EXPLAIN
TAG	EISPOT
TITLE	LABEL	Potentiostatic EIS	Test &Identifier
DATE	LABEL	2017-4-16	Date
TIME	LABEL	10:28:48	Time
NOTES	NOTES	2	&Notes...
	
	
PSTAT	PSTAT	REF600-19025	Potentiostat
VDC	POTEN	0.00000E+000	T	DC &Voltage (V)
FREQINIT	QUANT	1.00000E+005	Initial Fre&q. (Hz)
FREQFINAL	QUANT	1.00000E-001	Final Fre&q. (Hz)
PTSPERDEC	QUANT	5.00000E+000	Points/&decade
VAC	QUANT	2.00000E+001	AC &Voltage (mV rms)
AREA	QUANT	1.00000E+000	&Area (cm^2)
CONDIT	TWOPARAM	F	1.50000E+001	0.00000E+000	Conditionin&g	Time(s)	E(V)
DELAY	TWOPARAM	T	3.00000E+002	0.00000E+000	Init. De&lay	Time(s)	Stab.(mV/s)
SPEED	SELECTOR	2	&Optimize for:
ZGUESS	QUANT	1.00000E+008	E&stimated Z (ohms)
OCVCURVE	TABLE	410
	Pt	T	Vf	Vm	Ach	Over
	#	s	V vs. Ref.	V	V	bits
	0	0.25	-3.54245E-001	-3.54245E-001	3.94444E-004	...........
	1	0.5	-3.54281E-001	-3.56147E-001	3.93944E-004	...........
	2	0.75	-3.54405E-001	-3.52727E-001	3.94611E-004	...........
	3	1	-3.54477E-001	-3.52329E-001	3.94694E-004	...........
	4	1.25	-3.54207E-001	-3.52033E-001	4.00319E-004	...........
	5	1.5	-3.53623E-001	-3.55121E-001	3.97611E-004	...........
	6	1.75	-3.53262E-001	-3.57258E-001	3.96778E-004	...........
	7	2	-3.53628E-001	-3.56121E-001	3.99652E-004	...........
	8	2.25	-3.54564E-001	-3.54693E-001	3.96319E-004	...........
	9	2.5	-3.55427E-001	-3.57532E-001	4.00277E-004	...........
	10	2.75	-3.55912E-001	-3.56885E-001	4.01027E-004	...........
	11	3	-3.56240E-001	-3.57436E-001	3.97069E-004	...........
	12	3.25	-3.56613E-001	-3.57883E-001	3.89569E-004	...........
	13	3.5	-3.57014E-001	-3.57917E-001	4.03777E-004	...........
	14	3.75	-3.57393E-001	-3.58675E-001	4.01527E-004	...........
	15	4	-3.57760E-001	-3.59305E-001	3.94986E-004	...........
	16	4.25	-3.58169E-001	-3.59760E-001	4.00611E-004	...........
	17	4.5	-3.58642E-001	-3.59851E-001	4.02402E-004	...........
	18	4.75	-3.59118E-001	-3.59895E-001	3.97694E-004	...........
	19	5	-3.59513E-001	-3.60502E-001	3.94153E-004	...........
	20	5.25	-3.59819E-001	-3.60699E-001	4.01819E-004	...........
	21	5.5	-3.60094E-001	-3.60932E-001	3.97361E-004	...........
	22	5.75	-3.60322E-001	-3.58481E-001	4.02236E-004	...........
	23	6	-3.60281E-001	-3.56138E-001	4.01652E-004	...........
	24	6.25	-3.59726E-001	-3.58157E-001	4.05444E-004	...........
	25	6.5	-3.58866E-001	-3.60181E-001	4.05444E-004	...........
	26	6.75	-3.58381E-001	-3.61734E-001	3.96402E-004	...........
	27	7	-3.58791E-001	-3.65036E-001	4.01986E-004	...........
	28	7.25	-3.60176E-001	-3.70093E-001	3.99777E-004	...........
	29	7.5	-3.62433E-001	-3.71024E-001	4.02152E-004	...........
	30	7.75	-3.65175E-001	-3.67877E-001	4.02152E-004	...........
	31	8	-3.67505E-001	-3.66927E-001	4.06069E-004	...........
	32	8.25	-3.68576E-001	-3.65935E-001	4.00527E-004	...........
	33	8.5	-3.68349E-001	-3.65345E-001	3.92403E-004	...........
	34	8.75	-3.67421E-001	-3.64351E-001	3.97777E-004	...........
	35	9	-3.66366E-001	-3.64523E-001	4.04027E-004	...........
	36	9.25	-3.65481E-001	-3.64188E-001	3.97819E-004	...........
	37	9.5	-3.64861E-001	-3.64230E-001	3.92944E-004	...........
	38	9.75	-3.64388E-001	-3.58645E-001	4.00402E-004	...........
	39	10	-3.63478E-001	-3.49705E-001	3.96528E-004	...........
	40	10.25	-3.61384E-001	-3.54824E-001	3.95944E-004	...........
	41	10.5	-3.58474E-001	-3.61219E-001	3.99611E-004	...........
	42	10.75	-3.56571E-001	-3.64641E-001	4.01819E-004	...........
	43	11	-3.57112E-001	-3.66917E-001	3.98069E-004	...........
	44	11.25	-3.59708E-001	-3.68243E-001	3.98152E-004	...........
	45	11.5	-3.62940E-001	-3.69142E-001	4.03194E-004	...........
	46	11.75	-3.65702E-001	-3.69487E-001	3.95736E-004	...........
	47	12	-3.67609E-001	-3.69620E-001	3.97194E-004	...........
	48	12.25	-3.68738E-001	-3.69665E-001	4.01277E-004	...........
	49	12.5	-3.69315E-001	-3.69375E-001	3.98444E-004	...........
	50	12.75	-3.69538E-001	-3.69188E-001	3.92861E-004	...........
	51	13	-3.69546E-001	-3.69341E-001	3.94986E-004	...........
	52	13.25	-3.69464E-001	-3.69683E-001	4.06277E-004	...........
	53	13.5	-3.69405E-001	-3.69400E-001	3.95319E-004	...........
	54	13.75	-3.69401E-001	-3.68862E-001	3.94444E-004	...........
	55	14	-3.69378E-001	-3.69000E-001	3.99444E-004	...........
	56	14.25	-3.69281E-001	-3.69142E-001	4.02486E-004	...........
	57	14.5	-3.69161E-001	-3.69182E-001	3.92278E-004	...........
	58	14.75	-3.69095E-001	-3.68988E-001	3.93778E-004	...........
	59	15	-3.69079E-001	-3.68987E-001	4.07986E-004	...........
	60	15.25	-3.69066E-001	-3.68827E-001	4.06194E-004	...........
	61	15.5	-3.69021E-001	-3.68638E-001	3.99319E-004	...........
	62	15.75	-3.68933E-001	-3.68335E-001	3.95278E-004	...........
	63	16	-3.68792E-001	-3.68078E-001	3.99277E-004	...........
	64	16.25	-3.68601E-001	-3.67934E-001	3.98652E-004	...........
	65	16.5	-3.68379E-001	-3.67788E-001	3.94986E-004	...........
	66	16.75	-3.68162E-001	-3.67654E-001	4.02861E-004	...........
	67	17	-3.67965E-001	-3.67241E-001	4.01486E-004	...........
	68	17.25	-3.67768E-001	-3.66775E-001	3.96028E-004	...........
	69	17.5	-3.67527E-001	-3.66516E-001	4.02444E-004	...........
	70	17.75	-3.67223E-001	-3.66098E-001	3.98778E-004	...........
	71	18	-3.66880E-001	-3.65978E-001	3.94069E-004	...........
	72	18.25	-3.66539E-001	-3.65621E-001	3.91694E-004	...........
	73	18.5	-3.66221E-001	-3.65203E-001	3.96902E-004	...........
	74	18.75	-3.65919E-001	-3.65085E-001	4.00319E-004	...........
	75	19	-3.65621E-001	-3.64773E-001	3.98194E-004	...........
	76	19.25	-3.65332E-001	-3.64437E-001	4.05402E-004	...........
	77	19.5	-3.65049E-001	-3.64038E-001	4.00652E-004	...........
	78	19.75	-3.64756E-001	-3.63873E-001	3.97903E-004	...........
	79	20	-3.64446E-001	-3.63311E-001	3.98694E-004	...........
	80	20.25	-3.64113E-001	-3.62625E-001	4.00652E-004	...........
	81	20.5	-3.63726E-001	-3.62193E-001	4.05527E-004	...........
	82	20.75	-3.63262E-001	-3.61409E-001	3.93903E-004	...........
	83	21	-3.62724E-001	-3.60753E-001	3.97527E-004	...........
	84	21.25	-3.62125E-001	-3.60063E-001	3.98194E-004	...........
	85	21.5	-3.61480E-001	-3.59440E-001	3.94778E-004	...........
	86	21.75	-3.60817E-001	-3.58984E-001	3.93111E-004	...........
	87	22	-3.60173E-001	-3.58529E-001	3.96111E-004	...........
	88	22.25	-3.59578E-001	-3.57908E-001	4.03652E-004	...........
	89	22.5	-3.59027E-001	-3.57303E-001	3.99486E-004	...........
	90	22.75	-3.58486E-001	-3.56619E-001	4.03652E-004	...........
	91	23	-3.57912E-001	-3.55600E-001	3.95944E-004	...........
	92	23.25	-3.57265E-001	-3.54689E-001	3.94986E-004	...........
	93	23.5	-3.56515E-001	-3.53703E-001	3.91319E-004	...........
	94	23.75	-3.55671E-001	-3.53021E-001	3.95319E-004	...........
	95	24	-3.54782E-001	-3.52204E-001	3.93694E-004	...........
	96	24.25	-3.53908E-001	-3.51506E-001	3.92944E-004	...........
	97	24.5	-3.53081E-001	-3.50747E-001	3.97277E-004	...........
	98	24.75	-3.52295E-001	-3.49796E-001	4.00444E-004	...........
	99	25	-3.51518E-001	-3.48914E-001	3.94069E-004	...........
	100	25.25	-3.50703E-001	-3.47521E-001	3.92694E-004	...........
	101	25.5	-3.49804E-001	-3.46540E-001	3.93986E-004	...........
	102	25.75	-3.48827E-001	-3.46732E-001	3.99194E-004	...........
	103	26	-3.47882E-001	-3.45678E-001	3.94528E-004	...........
	104	26.25	-3.47077E-001	-3.44962E-001	3.95278E-004	...........
	105	26.5	-3.46382E-001	-3.43865E-001	3.95903E-004	...........
	106	26.75	-3.45681E-001	-3.43422E-001	3.93444E-004	...........
	107	27	-3.44927E-001	-3.42613E-001	3.92861E-004	...........
	108	27.25	-3.44158E-001	-3.41891E-001	3.99111E-004	...........
	109	27.5	-3.43408E-001	-3.41267E-001	4.00111E-004	...........
	110	27.75	-3.42687E-001	-3.40636E-001	3.96652E-004	...........
	111	28	-3.41988E-001	-3.39705E-001	3.99944E-004	...........
	112	28.25	-3.41289E-001	-3.38838E-001	4.06569E-004	...........
	113	28.5	-3.40549E-001	-3.37886E-001	3.95819E-004	...........
	114	28.75	-3.39742E-001	-3.36949E-001	4.01694E-004	...........
	115	29	-3.38878E-001	-3.36290E-001	4.01611E-004	...........
	116	29.25	-3.38082E-001	-3.39983E-001	4.02611E-004	...........
	117	29.5	-3.37663E-001	-3.38672E-001	4.03111E-004	...........
	118	29.75	-3.37779E-001	-3.37444E-001	4.01402E-004	...........
	119	30	-3.38077E-001	-3.36495E-001	4.05402E-004	...........
	120	30.25	-3.38034E-001	-3.35347E-001	4.07486E-004	...........
	121	30.5	-3.37479E-001	-3.34079E-001	4.00194E-004	...........
	122	30.75	-3.36545E-001	-3.32746E-001	4.13277E-004	...........
	123	31	-3.35404E-001	-3.31529E-001	4.11319E-004	...........
	124	31.25	-3.34167E-001	-3.30302E-001	4.01152E-004	...........
	125	31.5	-3.32897E-001	-3.28762E-001	3.95278E-004	...........
	126	31.75	-3.31605E-001	-3.27418E-001	4.02152E-004	...........
	127	32	-3.30289E-001	-3.26600E-001	4.01861E-004	...........
	128	32.25	-3.28976E-001	-3.24900E-001	4.01819E-004	...........
	129	32.5	-3.27690E-001	-3.23748E-001	4.05611E-004	...........
	130	32.75	-3.26413E-001	-3.22304E-001	4.03319E-004	...........
	131	33	-3.25099E-001	-3.20346E-001	3.96361E-004	...........
	132	33.25	-3.23707E-001	-3.18934E-001	3.99194E-004	...........
	133	33.5	-3.22219E-001	-3.17750E-001	4.00236E-004	...........
	134	33.75	-3.20692E-001	-3.16280E-001	3.92986E-004	...........
	135	34	-3.19210E-001	-3.15144E-001	3.91861E-004	...........
	136	34.25	-3.17818E-001	-3.14215E-001	3.99611E-004	...........
	137	34.5	-3.16551E-001	-3.14235E-001	3.99861E-004	...........
	138	34.75	-3.15503E-001	-3.14255E-001	3.91653E-004	...........
	139	35	-3.14838E-001	-3.17465E-001	4.00361E-004	...........
	140	35.25	-3.14826E-001	-3.20492E-001	4.01861E-004	...........
	141	35.5	-3.15673E-001	-3.19666E-001	3.95694E-004	...........
	142	35.75	-3.17082E-001	-3.17381E-001	3.97319E-004	...........
	143	36	-3.18203E-001	-3.15166E-001	3.93486E-004	...........
	144	36.25	-3.18300E-001	-3.13463E-001	3.98027E-004	...........
	145	36.5	-3.17271E-001	-3.09907E-001	4.00152E-004	...........
	146	36.75	-3.15353E-001	-3.03759E-001	3.98694E-004	...........
	147	37	-3.12462E-001	-2.92408E-001	4.01361E-004	...........
	148	37.25	-3.08172E-001	-2.90514E-001	3.95153E-004	...........
	149	37.5	-3.02723E-001	-2.94650E-001	3.98569E-004	...........
	150	37.75	-2.97746E-001	-2.98567E-001	4.03319E-004	...........
	151	38	-2.95107E-001	-2.99546E-001	4.01402E-004	...........
	152	38.25	-2.95140E-001	-2.99375E-001	3.97111E-004	...........
	153	38.5	-2.96591E-001	-2.97943E-001	3.95694E-004	...........
	154	38.75	-2.97832E-001	-2.91149E-001	3.97861E-004	...........
	155	39	-2.97854E-001	-2.96546E-001	3.94236E-004	...........
	156	39.25	-2.96894E-001	-2.99083E-001	3.93444E-004	...........
	157	39.5	-2.96236E-001	-3.01445E-001	4.01944E-004	...........
	158	39.75	-2.96839E-001	-3.03073E-001	3.97444E-004	...........
	159	40	-2.98553E-001	-3.05322E-001	3.87778E-004	...........
	160	40.25	-3.00706E-001	-3.05949E-001	3.89028E-004	...........
	161	40.5	-3.02754E-001	-3.06136E-001	3.93153E-004	...........
	162	40.75	-3.04374E-001	-3.06359E-001	3.98611E-004	...........
	163	41	-3.05443E-001	-3.06507E-001	4.02402E-004	...........
	164	41.25	-3.06037E-001	-3.06432E-001	3.97736E-004	...........
	165	41.5	-3.06324E-001	-3.06603E-001	3.95736E-004	...........
	166	41.75	-3.06456E-001	-3.06806E-001	3.93194E-004	...........
	167	42	-3.06542E-001	-3.06906E-001	3.93444E-004	...........
	168	42.25	-3.06640E-001	-3.07035E-001	3.95361E-004	...........
	169	42.5	-3.06762E-001	-3.07164E-001	3.88569E-004	...........
	170	42.75	-3.06891E-001	-3.07211E-001	3.89403E-004	...........
	171	43	-3.07014E-001	-3.07323E-001	4.01069E-004	...........
	172	43.25	-3.07122E-001	-3.07328E-001	3.97236E-004	...........
	173	43.5	-3.07207E-001	-3.07184E-001	3.88611E-004	...........
	174	43.75	-3.07256E-001	-3.07184E-001	3.87486E-004	...........
	175	44	-3.07265E-001	-3.07384E-001	3.97819E-004	...........
	176	44.25	-3.07263E-001	-3.07477E-001	3.98986E-004	...........
	177	44.5	-3.07289E-001	-3.07502E-001	3.99153E-004	...........
	178	44.75	-3.07353E-001	-3.07679E-001	4.02486E-004	...........
	179	45	-3.07440E-001	-3.07717E-001	4.00944E-004	...........
	180	45.25	-3.07531E-001	-3.07636E-001	3.94986E-004	...........
	181	45.5	-3.07605E-001	-3.07513E-001	3.94819E-004	...........
	182	45.75	-3.07632E-001	-3.07405E-001	3.98236E-004	...........
	183	46	-3.07602E-001	-3.07404E-001	3.98486E-004	...........
	184	46.25	-3.07535E-001	-3.07255E-001	3.88778E-004	...........
	185	46.5	-3.07451E-001	-3.07111E-001	3.93736E-004	...........
	186	46.75	-3.07359E-001	-3.07054E-001	3.95528E-004	...........
	187	47	-3.07257E-001	-3.06919E-001	3.88444E-004	...........
	188	47.25	-3.07149E-001	-3.06718E-001	3.87444E-004	...........
	189	47.5	-3.07029E-001	-3.06527E-001	3.90944E-004	...........
	190	47.75	-3.06892E-001	-3.06466E-001	3.89486E-004	...........
	191	48	-3.06743E-001	-3.06403E-001	3.84778E-004	...........
	192	48.25	-3.06602E-001	-3.06141E-001	3.89194E-004	...........
	193	48.5	-3.06468E-001	-3.05905E-001	3.84986E-004	...........
	194	48.75	-3.06317E-001	-3.05555E-001	3.83986E-004	...........
	195	49	-3.06119E-001	-3.05096E-001	3.88944E-004	...........
	196	49.25	-3.05856E-001	-3.04752E-001	3.93319E-004	...........
	197	49.5	-3.05532E-001	-3.04465E-001	3.89903E-004	...........
	198	49.75	-3.05178E-001	-3.04187E-001	3.88153E-004	...........
	199	50	-3.04831E-001	-3.03966E-001	3.90361E-004	...........
	200	50.25	-3.04517E-001	-3.03799E-001	3.87028E-004	...........
	201	50.5	-3.04245E-001	-3.03588E-001	3.92861E-004	...........
	202	50.75	-3.03999E-001	-3.02837E-001	3.91153E-004	...........
	203	51	-3.03734E-001	-3.02614E-001	3.97111E-004	...........
	204	51.25	-3.03403E-001	-3.02032E-001	3.92653E-004	...........
	205	51.5	-3.02991E-001	-3.00853E-001	3.80986E-004	...........
	206	51.75	-3.02492E-001	-3.01208E-001	3.97277E-004	...........
	207	52	-3.01953E-001	-3.01026E-001	3.87653E-004	...........
	208	52.25	-3.01513E-001	-3.01884E-001	3.86361E-004	...........
	209	52.5	-3.01323E-001	-3.02536E-001	3.90528E-004	...........
	210	52.75	-3.01429E-001	-3.02005E-001	3.94944E-004	...........
	211	53	-3.01685E-001	-3.00633E-001	3.95194E-004	...........
	212	53.25	-3.01821E-001	-3.01882E-001	3.98277E-004	...........
	213	53.5	-3.01757E-001	-3.02320E-001	3.96361E-004	...........
	214	53.75	-3.01693E-001	-3.02155E-001	3.93278E-004	...........
	215	54	-3.01784E-001	-3.02104E-001	3.90069E-004	...........
	216	54.25	-3.01950E-001	-3.01941E-001	3.94319E-004	...........
	217	54.5	-3.02053E-001	-3.01735E-001	3.95319E-004	...........
	218	54.75	-3.02042E-001	-3.01669E-001	3.94694E-004	...........
	219	55	-3.01946E-001	-3.01641E-001	3.90986E-004	...........
	220	55.25	-3.01822E-001	-3.01481E-001	3.91403E-004	...........
	221	55.5	-3.01704E-001	-3.01262E-001	3.90153E-004	...........
	222	55.75	-3.01587E-001	-3.01128E-001	3.92236E-004	...........
	223	56	-3.01454E-001	-3.01027E-001	3.86444E-004	...........
	224	56.25	-3.01312E-001	-3.01068E-001	3.96152E-004	...........
	225	56.5	-3.01188E-001	-3.01075E-001	3.89903E-004	...........
	226	56.75	-3.01106E-001	-3.00955E-001	3.83778E-004	...........
	227	57	-3.01055E-001	-3.00790E-001	3.89194E-004	...........
	228	57.25	-3.01003E-001	-3.00690E-001	3.91069E-004	...........
	229	57.5	-3.00925E-001	-3.00612E-001	3.84819E-004	...........
	230	57.75	-3.00827E-001	-3.00613E-001	3.93403E-004	...........
	231	58	-3.00731E-001	-3.00518E-001	3.97111E-004	...........
	232	58.25	-3.00653E-001	-3.00517E-001	3.97611E-004	...........
	233	58.5	-3.00596E-001	-3.00573E-001	3.92611E-004	...........
	234	58.75	-3.00559E-001	-3.00484E-001	3.94944E-004	...........
	235	59	-3.00535E-001	-3.00321E-001	3.99319E-004	...........
	236	59.25	-3.00502E-001	-3.00218E-001	3.93444E-004	...........
	237	59.5	-3.00439E-001	-3.00111E-001	3.95236E-004	...........
	238	59.75	-3.00344E-001	-2.99949E-001	3.88694E-004	...........
	239	60	-3.00227E-001	-2.99693E-001	4.01486E-004	...........
	240	60.25	-3.00085E-001	-2.99452E-001	3.98069E-004	...........
	241	60.5	-2.99913E-001	-2.99345E-001	3.97486E-004	...........
	242	60.75	-2.99723E-001	-2.99303E-001	3.98319E-004	...........
	243	61	-2.99545E-001	-2.99185E-001	3.92444E-004	...........
	244	61.25	-2.99402E-001	-2.99157E-001	3.98361E-004	...........
	245	61.5	-2.99303E-001	-2.99425E-001	3.97653E-004	...........
	246	61.75	-2.99261E-001	-2.99594E-001	3.91736E-004	...........
	247	62	-2.99296E-001	-2.99712E-001	3.91194E-004	...........
	248	62.25	-2.99399E-001	-2.99745E-001	3.92653E-004	...........
	249	62.5	-2.99529E-001	-2.99772E-001	3.99111E-004	...........
	250	62.75	-2.99640E-001	-2.99683E-001	3.96986E-004	...........
	251	63	-2.99706E-001	-2.99685E-001	3.96736E-004	...........
	252	63.25	-2.99725E-001	-2.99636E-001	3.99736E-004	...........
	253	63.5	-2.99709E-001	-2.99502E-001	3.99819E-004	...........
	254	63.75	-2.99669E-001	-2.99522E-001	3.94069E-004	...........
	255	64	-2.99616E-001	-2.99453E-001	3.95903E-004	...........
	256	64.25	-2.99557E-001	-2.99296E-001	3.91194E-004	...........
	257	64.5	-2.99494E-001	-2.99242E-001	3.89528E-004	...........
	258	64.75	-2.99421E-001	-2.99229E-001	3.87278E-004	...........
	259	65	-2.99344E-001	-2.99153E-001	3.94944E-004	...........
	260	65.25	-2.99272E-001	-2.98983E-001	3.94319E-004	...........
	261	65.5	-2.99197E-001	-2.98761E-001	3.96652E-004	...........
	262	65.75	-2.99098E-001	-2.98620E-001	3.88653E-004	...........
	263	66	-2.98965E-001	-2.98569E-001	3.93611E-004	...........
	264	66.25	-2.98820E-001	-2.98536E-001	3.92486E-004	...........
	265	66.5	-2.98691E-001	-2.98428E-001	3.89486E-004	...........
	266	66.75	-2.98591E-001	-2.98324E-001	3.90778E-004	...........
	267	67	-2.98508E-001	-2.98259E-001	3.99986E-004	...........
	268	67.25	-2.98426E-001	-2.98137E-001	3.99194E-004	...........
	269	67.5	-2.98340E-001	-2.98045E-001	3.96069E-004	...........
	270	67.75	-2.98214E-001	-2.96182E-001	3.98236E-004	...........
	271	68	-2.97956E-001	-2.96771E-001	3.92361E-004	...........
	272	68.25	-2.97544E-001	-2.97047E-001	3.98652E-004	...........
	273	68.5	-2.97170E-001	-2.98350E-001	3.99444E-004	...........
	274	68.75	-2.97080E-001	-2.97765E-001	3.99402E-004	...........
	275	69	-2.97286E-001	-2.97701E-001	3.91611E-004	...........
	276	69.25	-2.97554E-001	-2.97109E-001	3.90653E-004	...........
	277	69.5	-2.97658E-001	-2.97055E-001	3.96486E-004	...........
	278	69.75	-2.97568E-001	-2.97589E-001	3.83528E-004	...........
	279	70	-2.97425E-001	-2.97677E-001	3.93194E-004	...........
	280	70.25	-2.97380E-001	-2.97734E-001	3.94194E-004	...........
	281	70.5	-2.97453E-001	-2.97629E-001	3.93153E-004	...........
	282	70.75	-2.97559E-001	-2.97450E-001	3.90903E-004	...........
	283	71	-2.97611E-001	-2.97377E-001	3.93944E-004	...........
	284	71.25	-2.97584E-001	-2.97298E-001	3.88778E-004	...........
	285	71.5	-2.97501E-001	-2.97110E-001	3.88986E-004	...........
	286	71.75	-2.97392E-001	-2.97011E-001	3.84528E-004	...........
	287	72	-2.97274E-001	-2.97010E-001	3.94028E-004	...........
	288	72.25	-2.97163E-001	-2.97045E-001	3.96402E-004	...........
	289	72.5	-2.97081E-001	-2.96950E-001	3.90778E-004	...........
	290	72.75	-2.97028E-001	-2.96790E-001	3.94194E-004	...........
	291	73	-2.96978E-001	-2.96600E-001	3.98319E-004	...........
	292	73.25	-2.96897E-001	-2.96434E-001	3.94403E-004	...........
	293	73.5	-2.96775E-001	-2.96265E-001	3.85111E-004	...........
	294	73.75	-2.96620E-001	-2.96019E-001	4.01736E-004	...........
	295	74	-2.96445E-001	-2.95918E-001	3.97277E-004	...........
	296	74.25	-2.96264E-001	-2.95773E-001	4.04236E-004	...........
	297	74.5	-2.96089E-001	-2.95602E-001	3.94778E-004	...........
	298	74.75	-2.95926E-001	-2.95465E-001	3.91569E-004	...........
	299	75	-2.95772E-001	-2.95314E-001	3.93694E-004	...........
	300	75.25	-2.95621E-001	-2.95097E-001	3.94153E-004	...........
	301	75.5	-2.95465E-001	-2.94934E-001	3.92611E-004	...........
	302	75.75	-2.95301E-001	-2.94794E-001	3.94403E-004	...........
	303	76	-2.95131E-001	-2.94650E-001	3.91278E-004	...........
	304	76.25	-2.94967E-001	-2.94578E-001	3.91861E-004	...........
	305	76.5	-2.94819E-001	-2.94507E-001	3.92111E-004	...........
	306	76.75	-2.94694E-001	-2.94382E-001	3.92486E-004	...........
	307	77	-2.94587E-001	-2.94245E-001	3.91778E-004	...........
	308	77.25	-2.94488E-001	-2.94229E-001	3.99652E-004	...........
	309	77.5	-2.94391E-001	-2.94213E-001	4.02861E-004	...........
	310	77.75	-2.94310E-001	-2.94230E-001	3.94403E-004	...........
	311	78	-2.94255E-001	-2.94218E-001	3.91319E-004	...........
	312	78.25	-2.94228E-001	-2.94194E-001	3.95069E-004	...........
	313	78.5	-2.94216E-001	-2.94178E-001	3.89944E-004	...........
	314	78.75	-2.94208E-001	-2.94187E-001	3.95361E-004	...........
	315	79	-2.94199E-001	-2.94232E-001	3.97569E-004	...........
	316	79.25	-2.94196E-001	-2.94242E-001	3.95778E-004	...........
	317	79.5	-2.94204E-001	-2.94270E-001	3.91319E-004	...........
	318	79.75	-2.94220E-001	-2.94250E-001	3.97153E-004	...........
	319	80	-2.94241E-001	-2.94433E-001	3.92694E-004	...........
	320	80.25	-2.94270E-001	-2.94425E-001	3.91278E-004	...........
	321	80.5	-2.94313E-001	-2.94383E-001	3.87403E-004	...........
	322	80.75	-2.94357E-001	-2.94315E-001	3.89486E-004	...........
	323	81	-2.94377E-001	-2.94243E-001	3.85944E-004	...........
	324	81.25	-2.94363E-001	-2.94258E-001	3.82903E-004	...........
	325	81.5	-2.94325E-001	-2.94184E-001	3.80694E-004	...........
	326	81.75	-2.94279E-001	-2.94067E-001	3.88403E-004	...........
	327	82	-2.94228E-001	-2.94048E-001	3.90528E-004	...........
	328	82.25	-2.94168E-001	-2.93920E-001	3.90028E-004	...........
	329	82.5	-2.94098E-001	-2.93826E-001	3.91319E-004	...........
	330	82.75	-2.94021E-001	-2.93811E-001	3.86194E-004	...........
	331	83	-2.93941E-001	-2.93755E-001	3.84611E-004	...........
	332	83.25	-2.93867E-001	-2.93597E-001	3.83986E-004	...........
	333	83.5	-2.93796E-001	-2.93557E-001	3.92028E-004	...........
	334	83.75	-2.93722E-001	-2.93520E-001	3.89986E-004	...........
	335	84	-2.93645E-001	-2.93444E-001	3.87528E-004	...........
	336	84.25	-2.93579E-001	-2.93587E-001	3.96986E-004	...........
	337	84.5	-2.93534E-001	-2.93490E-001	3.97611E-004	...........
	338	84.75	-2.93513E-001	-2.93351E-001	3.89028E-004	...........
	339	85	-2.93492E-001	-2.93248E-001	3.91486E-004	...........
	340	85.25	-2.93446E-001	-2.93217E-001	3.94194E-004	...........
	341	85.5	-2.93371E-001	-2.93044E-001	3.89111E-004	...........
	342	85.75	-2.93273E-001	-2.92572E-001	3.92611E-004	...........
	343	86	-2.93132E-001	-2.92301E-001	3.93236E-004	...........
	344	86.25	-2.92908E-001	-2.91330E-001	3.94611E-004	...........
	345	86.5	-2.92593E-001	-2.92379E-001	3.91569E-004	...........
	346	86.75	-2.92325E-001	-2.94741E-001	3.90736E-004	...........
	347	87	-2.92422E-001	-2.96124E-001	3.91028E-004	...........
	348	87.25	-2.93102E-001	-2.96195E-001	3.84278E-004	...........
	349	87.5	-2.94163E-001	-2.95689E-001	3.88694E-004	...........
	350	87.75	-2.95110E-001	-2.94768E-001	3.95694E-004	...........
	351	88	-2.95565E-001	-2.94621E-001	3.93111E-004	...........
	352	88.25	-2.95502E-001	-2.94307E-001	3.86403E-004	...........
	353	88.5	-2.95149E-001	-2.94068E-001	3.95778E-004	...........
	354	88.75	-2.94733E-001	-2.93432E-001	4.04861E-004	...........
	355	89	-2.94329E-001	-2.92620E-001	3.97527E-004	...........
	356	89.25	-2.93885E-001	-2.91975E-001	3.99277E-004	...........
	357	89.5	-2.93343E-001	-2.91099E-001	3.97736E-004	...........
	358	89.75	-2.92718E-001	-2.91636E-001	4.03944E-004	...........
	359	90	-2.92144E-001	-2.92154E-001	3.92986E-004	...........
	360	90.25	-2.91802E-001	-2.92114E-001	3.90194E-004	...........
	361	90.5	-2.91755E-001	-2.92357E-001	3.95861E-004	...........
	362	90.75	-2.91908E-001	-2.92777E-001	3.96986E-004	...........
	363	91	-2.92151E-001	-2.93468E-001	3.95444E-004	...........
	364	91.25	-2.92466E-001	-2.93794E-001	3.98152E-004	...........
	365	91.5	-2.92853E-001	-2.93827E-001	3.92653E-004	...........
	366	91.75	-2.93250E-001	-2.93931E-001	3.91361E-004	...........
	367	92	-2.93570E-001	-2.93843E-001	3.88778E-004	...........
	368	92.25	-2.93771E-001	-2.94025E-001	3.93069E-004	...........
	369	92.5	-2.93877E-001	-2.94063E-001	3.91361E-004	...........
	370	92.75	-2.93936E-001	-2.93957E-001	3.93153E-004	...........
	371	93	-2.93974E-001	-2.93868E-001	3.96194E-004	...........
	372	93.25	-2.93980E-001	-2.93793E-001	3.95069E-004	...........
	373	93.5	-2.93949E-001	-2.93893E-001	3.90861E-004	...........
	374	93.75	-2.93909E-001	-2.94111E-001	3.94194E-004	...........
	375	94	-2.93904E-001	-2.94252E-001	3.97236E-004	...........
	376	94.25	-2.93961E-001	-2.94236E-001	3.93403E-004	...........
	377	94.5	-2.94060E-001	-2.94321E-001	3.90819E-004	...........
	378	94.75	-2.94165E-001	-2.94480E-001	3.99111E-004	...........
	379	95	-2.94260E-001	-2.94581E-001	3.96486E-004	...........
	380	95.25	-2.94355E-001	-2.94668E-001	4.00527E-004	...........
	381	95.5	-2.94455E-001	-2.94706E-001	4.02069E-004	...........
	382	95.75	-2.94552E-001	-2.94743E-001	4.02777E-004	...........
	383	96	-2.94633E-001	-2.94812E-001	4.03444E-004	...........
	384	96.25	-2.94698E-001	-2.94874E-001	3.92194E-004	...........
	385	96.5	-2.94757E-001	-2.95066E-001	3.98319E-004	...........
	386	96.75	-2.94827E-001	-2.95169E-001	4.00111E-004	...........
	387	97	-2.94920E-001	-2.95304E-001	3.94861E-004	...........
	388	97.25	-2.95033E-001	-2.95356E-001	3.86028E-004	...........
	389	97.5	-2.95150E-001	-2.95385E-001	3.94278E-004	...........
	390	97.75	-2.95251E-001	-2.95386E-001	3.94403E-004	...........
	391	98	-2.95323E-001	-2.95394E-001	3.99611E-004	...........
	392	98.25	-2.95365E-001	-2.95403E-001	3.98361E-004	...........
	393	98.5	-2.95387E-001	-2.95425E-001	3.95778E-004	...........
	394	98.75	-2.95398E-001	-2.95407E-001	3.97069E-004	...........
	395	99	-2.95406E-001	-2.95410E-001	3.92736E-004	...........
	396	99.25	-2.95410E-001	-2.95402E-001	3.95819E-004	...........
	397	99.5	-2.95409E-001	-2.95341E-001	3.97527E-004	...........
	398	99.75	-2.95401E-001	-2.95316E-001	3.94944E-004	...........
	399	100	-2.95382E-001	-2.95346E-001	3.94319E-004	...........
	400	100.25	-2.95360E-001	-2.95289E-001	3.95736E-004	...........
	401	100.5	-2.95335E-001	-2.95091E-001	3.88694E-004	...........
	402	100.75	-2.95295E-001	-2.94947E-001	3.94486E-004	...........
	403	101	-2.95220E-001	-2.94825E-001	3.99444E-004	...........
	404	101.25	-2.95108E-001	-2.94671E-001	3.90611E-004	...........
	405	101.5	-2.94975E-001	-2.94621E-001	3.96819E-004	...........
	406	101.75	-2.94842E-001	-2.94554E-001	3.97611E-004	...........
	407	102	-2.94728E-001	-2.94550E-001	3.99027E-004	...........
	408	102.25	-2.94644E-001	-2.94624E-001	3.95736E-004	...........
	409	102.5	-2.94597E-001	-2.94630E-001	3.97944E-004	...........
EOC	QUANT	-0.2945971	Open Circuit (V)
PSTATMODEL	IQUANT	4	Pstat Model
PSTATSECTION	LABEL	REF600-19025	Pstat Section
PSTATSERIALNO	LABEL	19025	Pstat Serial Number
CTRLMODE	IQUANT	1	Control Mode
IESTAB	IQUANT	0	I/E Stability
CASPEED	IQUANT	1	Control Amp Speed
CONVENTION	IQUANT	1	Current Convention
ICHRANGE	IQUANT	2	Ich Range
ICHRANGEMODE	TOGGLE	F	Ich Auto Range
ICHOFFSETENABLE	TOGGLE	T	Ich Offset Enable
ICHOFFSET	QUANT	0	Ich Offset (V)
ICHFILTER	IQUANT	3	Ich Filter
VCHRANGE	IQUANT	2	Vch Range
VCHRANGEMODE	TOGGLE	F	Vch Auto Range
VCHOFFSETENABLE	TOGGLE	T	Vch Offset Enable
VCHOFFSET	QUANT	0	Vch Offset (V)
VCHFILTER	IQUANT	3	Vch Filter
ACHRANGE	IQUANT	2	Ach Range
ACHOFFSETENABLE	TOGGLE	F	Ach Offset Enable
ACHOFFSET	QUANT	0	Ach Offset (V)
ACHFILTER	IQUANT	3	Ach Filter
IERANGELOWERLIMIT	IQUANT	1	I/E Range Lower Limit
IERANGEMODE	TOGGLE	F	I/E AutoRange
IERANGE	IQUANT	3	I/E Range
POSFEEDENABLE	TOGGLE	F	Positive Feedback IR Comp
POSFEEDRESISTANCE	QUANT	0	Positive Feedback Resistance (ohm)
ACHSELECT	IQUANT	0	Ach Select
CABLEID	IQUANT	13	Cable ID
DCCALDATE	LABEL	2017-4-11	DC Calibration Date
ACCALDATE	LABEL	2017-4-11	AC Calibration Date
THERMOSELECT	IQUANT	1	Thermo Select
FRAMEWORKVERSION	QUANT	6.04	Framework Version
INSTRUMENTVERSION	LABEL	3.04	Instrument Version
ZCURVE	TABLE
	Pt	Time	Freq	Zreal	Zimag	Zsig	Zmod	Zphz	Idc	Vdc	IERange
	#	s	Hz	ohm	ohm	V	ohm	ï¿½	A	V	#
	0	6	100078.1	49834.44	-91330.02	1	104041.5	-61.38081	1.806209E-006	-0.2931523	8
	1	13	63140.62	59701.71	-134497.2	1	147152.3	-66.06413	-1.639521E-006	-0.2935697	8
	2	15	39890.62	84366.57	-199253.8	1	216378.8	-67.05159	-1.595249E-006	-0.2919746	7
	3	19	25171.88	108676.3	-288813.3	1	308583.3	-69.37939	1.395361E-006	-0.2950932	7
	4	25	15890.62	156288.3	-419592.4	1	447754.2	-69.57082	-1.475945E-006	-0.2923297	7
	5	32	10078.13	332326.5	-886012.4	1	946286.9	-69.43988	-1.312832E-006	-0.291867	7
	8	44	2527.573	831774	-1664843	1	1861062	-63.45278	-1.168983E-007	-0.2934892	6
	9	50	1577.524	1428006	-2170412	1	2598055	-56.65739	-2.320081E-007	-0.2899942	6
	10	54	998.264	1976277	-2920961	1	3526710	-55.91832	8.020307E-008	-0.2961914	6
	11	59	627.7902	2701409	-3951337	1	4786509	-55.64077	1.364528E-007	-0.2940636	6
	12	64	397.9953	3724658	-5132798	1	6341820	-54.03317	-8.813566E-011	-0.2935011	5
	13	70	252.4038	5115369	-6569175	1	8325928	-52.09237	-9.226852E-011	-0.293495	5
	14	73	158.3615	6918123	-8335883	1	1.08327E+007	-50.31001	-6.859482E-011	-0.2935058	5
	15	76	100.4464	9367176	-1.044004E+007	1	1.402635E+007	-48.10042	2.174777E-012	-0.2935122	5
	16	78	63.3446	1.250923E+007	-1.32195E+007	1	1.819989E+007	-46.58131	-6.480514E-012	-0.2935066	5
	17	81	38.42213	1.742535E+007	-1.577986E+007	1	2.350844E+007	-42.16301	-4.94445E-011	-0.2935006	4
	18	84	24.93351	2.050297E+007	-1.889123E+007	1	2.787921E+007	-42.65715	-4.150359E-011	-0.2934879	4
	19	87	15.625	2.567406E+007	-2.354754E+007	1	3.48374E+007	-42.52619	-3.326901E-011	-0.2934873	4
	20	89	9.93114	3.095064E+007	-2.950198E+007	1	4.275873E+007	-43.62726	-3.087405E-011	-0.293501	4
	21	92	6.317385	3.744942E+007	-3.729098E+007	1	5.284956E+007	-44.87854	-3.623515E-011	-0.2935093	4
	22	96	3.945707	4.312783E+007	-4.829707E+007	1	6.475042E+007	-48.23611	-4.059626E-011	-0.2934887	4
	23	103	2.504006	5.029204E+007	-6.504524E+007	1	8.222027E+007	-52.28932	-3.676104E-011	-0.2934855	3
	24	110	1.584686	6.143863E+007	-8.991696E+007	1	1.089025E+008	-55.65591	-3.563415E-011	-0.293447	3
	25	121	0.999041	8.333549E+007	-1.264534E+008	1	1.514439E+008	-56.61427	-3.495613E-011	-0.2935036	3
	26	128	0.633446	1.110565E+008	-1.754028E+008	1	2.076046E+008	-57.66001	-3.490511E-011	-0.2942158	3
	27	139	0.400641	1.485061E+008	-2.278152E+008	1	2.719445E+008	-56.90084	-3.530744E-011	-0.2941988	2
	28	156	0.2520161	2.37736E+008	-3.422746E+008	1	4.167377E+008	-55.21705	-3.348463E-011	-0.2942004	2
	29	182	0.1588983	3.58118E+008	-4.515218E+008	1	5.762989E+008	-51.58081	-2.849327E-011	-0.2942066	2
	30	221	0.1001603	4.994408E+008	-5.730387E+008	1	7.601411E+008	-48.92571	-2.672455E-011	-0.2942068	2
