EXPLAIN
TAG	EISPOT
TITLE	LABEL	Potentiostatic EIS	Test &Identifier
DATE	LABEL	2017-4-18	Date
TIME	LABEL	7:08:11	Time
NOTES	NOTES	2	&Notes...
	
	
PSTAT	PSTAT	REF600-19025	Potentiostat
VDC	POTEN	0.00000E+000	T	DC &Voltage (V)
FREQINIT	QUANT	1.00000E+005	Initial Fre&q. (Hz)
FREQFINAL	QUANT	1.00000E-001	Final Fre&q. (Hz)
PTSPERDEC	QUANT	5.00000E+000	Points/&decade
VAC	QUANT	2.00000E+001	AC &Voltage (mV rms)
AREA	QUANT	1.00000E+000	&Area (cm^2)
CONDIT	TWOPARAM	F	1.50000E+001	0.00000E+000	Conditionin&g	Time(s)	E(V)
DELAY	TWOPARAM	T	3.00000E+002	0.00000E+000	Init. De&lay	Time(s)	Stab.(mV/s)
SPEED	SELECTOR	2	&Optimize for:
ZGUESS	QUANT	1.00000E+008	E&stimated Z (ohms)
OCVCURVE	TABLE	599
	Pt	T	Vf	Vm	Ach	Over
	#	s	V vs. Ref.	V	V	bits
	0	0.25	-2.97010E-001	-2.97010E-001	4.01444E-004	...........
	1	0.5	-2.97017E-001	-2.97363E-001	3.99652E-004	...........
	2	0.75	-2.97058E-001	-2.97691E-001	4.03569E-004	...........
	3	1	-2.97174E-001	-2.98001E-001	4.08027E-004	...........
	4	1.25	-2.97382E-001	-2.98317E-001	4.02694E-004	...........
	5	1.5	-2.97657E-001	-2.98624E-001	4.01527E-004	...........
	6	1.75	-2.97965E-001	-2.98928E-001	4.03402E-004	...........
	7	2	-2.98281E-001	-2.99186E-001	4.04486E-004	...........
	8	2.25	-2.98589E-001	-2.99463E-001	3.98152E-004	...........
	9	2.5	-2.98884E-001	-2.99718E-001	4.07611E-004	...........
	10	2.75	-2.99164E-001	-2.99955E-001	4.06444E-004	...........
	11	3	-2.99432E-001	-3.00206E-001	4.04861E-004	...........
	12	3.25	-2.99689E-001	-3.00410E-001	4.01611E-004	...........
	13	3.5	-2.99916E-001	-2.99671E-001	4.09111E-004	...........
	14	3.75	-3.00067E-001	-3.00505E-001	4.03111E-004	...........
	15	4	-3.00149E-001	-3.01087E-001	4.04902E-004	...........
	16	4.25	-3.00273E-001	-3.01245E-001	4.01861E-004	...........
	17	4.5	-3.00521E-001	-3.01393E-001	3.98944E-004	...........
	18	4.75	-3.00839E-001	-3.01538E-001	4.01486E-004	...........
	19	5	-3.01133E-001	-3.01797E-001	4.04694E-004	...........
	20	5.25	-3.01370E-001	-3.01977E-001	4.08777E-004	...........
	21	5.5	-3.01575E-001	-3.02213E-001	4.00861E-004	...........
	22	5.75	-3.01772E-001	-3.02354E-001	4.06069E-004	...........
	23	6	-3.01972E-001	-3.02626E-001	4.05111E-004	...........
	24	6.25	-3.02170E-001	-3.02640E-001	4.07777E-004	...........
	25	6.5	-3.02356E-001	-3.02733E-001	4.04277E-004	...........
	26	6.75	-3.02515E-001	-3.02910E-001	4.04486E-004	...........
	27	7	-3.02646E-001	-3.03019E-001	4.03444E-004	...........
	28	7.25	-3.02765E-001	-3.03113E-001	4.09027E-004	...........
	29	7.5	-3.02882E-001	-3.03217E-001	4.03027E-004	...........
	30	7.75	-3.02997E-001	-3.03341E-001	4.07194E-004	...........
	31	8	-3.03108E-001	-3.03433E-001	4.04111E-004	...........
	32	8.25	-3.03216E-001	-3.03522E-001	4.05319E-004	...........
	33	8.5	-3.03320E-001	-3.03620E-001	4.05861E-004	...........
	34	8.75	-3.03421E-001	-3.03713E-001	4.05944E-004	...........
	35	9	-3.03517E-001	-3.03795E-001	4.04861E-004	...........
	36	9.25	-3.03610E-001	-3.03863E-001	4.05236E-004	...........
	37	9.5	-3.03698E-001	-3.03924E-001	4.03819E-004	...........
	38	9.75	-3.03779E-001	-3.03989E-001	4.07736E-004	...........
	39	10	-3.03853E-001	-3.04060E-001	4.03944E-004	...........
	40	10.25	-3.03921E-001	-3.04118E-001	4.03569E-004	...........
	41	10.5	-3.03986E-001	-3.04165E-001	4.06694E-004	...........
	42	10.75	-3.04048E-001	-3.04209E-001	4.06319E-004	...........
	43	11	-3.04105E-001	-3.04231E-001	4.04111E-004	...........
	44	11.25	-3.04154E-001	-3.04195E-001	4.02444E-004	...........
	45	11.5	-3.04189E-001	-3.04264E-001	4.09736E-004	...........
	46	11.75	-3.04209E-001	-3.04162E-001	4.03944E-004	...........
	47	12	-3.04213E-001	-3.03958E-001	3.99319E-004	...........
	48	12.25	-3.04175E-001	-3.03417E-001	4.07611E-004	...........
	49	12.5	-3.04069E-001	-3.03897E-001	4.01402E-004	...........
	50	12.75	-3.03949E-001	-3.05233E-001	4.00902E-004	...........
	51	13	-3.03951E-001	-3.03610E-001	4.03777E-004	...........
	52	13.25	-3.04057E-001	-3.03025E-001	4.08986E-004	...........
	53	13.5	-3.04060E-001	-3.03910E-001	3.97111E-004	...........
	54	13.75	-3.03901E-001	-3.03893E-001	4.01902E-004	...........
	55	14	-3.03750E-001	-3.03891E-001	4.10111E-004	...........
	56	14.25	-3.03742E-001	-3.04605E-001	4.05194E-004	...........
	57	14.5	-3.03886E-001	-3.05300E-001	3.99694E-004	...........
	58	14.75	-3.04146E-001	-3.03855E-001	4.06611E-004	...........
	59	15	-3.04370E-001	-3.02972E-001	4.01152E-004	...........
	60	15.25	-3.04336E-001	-3.03399E-001	3.93444E-004	...........
	61	15.5	-3.04026E-001	-3.03399E-001	4.03777E-004	...........
	62	15.75	-3.03670E-001	-3.03645E-001	4.02902E-004	...........
	63	16	-3.03478E-001	-3.03882E-001	4.05402E-004	...........
	64	16.25	-3.03478E-001	-3.03779E-001	4.01111E-004	...........
	65	16.5	-3.03591E-001	-3.03965E-001	3.96319E-004	...........
	66	16.75	-3.03726E-001	-3.04131E-001	4.10027E-004	...........
	67	17	-3.03846E-001	-3.03952E-001	4.03902E-004	...........
	68	17.25	-3.03936E-001	-3.03860E-001	4.06902E-004	...........
	69	17.5	-3.03976E-001	-3.03888E-001	4.02152E-004	...........
	70	17.75	-3.03963E-001	-3.03865E-001	4.03111E-004	...........
	71	18	-3.03927E-001	-3.03892E-001	3.98486E-004	...........
	72	18.25	-3.03894E-001	-3.03690E-001	4.04361E-004	...........
	73	18.5	-3.03860E-001	-3.03678E-001	4.03027E-004	...........
	74	18.75	-3.03813E-001	-3.03656E-001	4.07819E-004	...........
	75	19	-3.03755E-001	-3.03602E-001	4.04069E-004	...........
	76	19.25	-3.03697E-001	-3.03511E-001	4.00569E-004	...........
	77	19.5	-3.03644E-001	-3.03497E-001	4.01861E-004	...........
	78	19.75	-3.03592E-001	-3.03438E-001	4.02194E-004	...........
	79	20	-3.03540E-001	-3.03378E-001	4.04277E-004	...........
	80	20.25	-3.03489E-001	-3.03304E-001	4.01111E-004	...........
	81	20.5	-3.03435E-001	-3.03226E-001	4.05361E-004	...........
	82	20.75	-3.03374E-001	-3.03142E-001	4.01902E-004	...........
	83	21	-3.03305E-001	-3.03074E-001	4.05944E-004	...........
	84	21.25	-3.03231E-001	-3.03011E-001	4.05611E-004	...........
	85	21.5	-3.03156E-001	-3.02937E-001	3.96861E-004	...........
	86	21.75	-3.03083E-001	-3.02842E-001	4.03652E-004	...........
	87	22	-3.03009E-001	-3.02755E-001	4.04694E-004	...........
	88	22.25	-3.02932E-001	-3.02674E-001	3.99986E-004	...........
	89	22.5	-3.02850E-001	-3.02593E-001	3.94944E-004	...........
	90	22.75	-3.02766E-001	-3.02497E-001	3.99027E-004	...........
	91	23	-3.02680E-001	-3.02396E-001	3.98111E-004	...........
	92	23.25	-3.02592E-001	-3.02300E-001	4.01236E-004	...........
	93	23.5	-3.02500E-001	-3.02214E-001	3.97277E-004	...........
	94	23.75	-3.02406E-001	-3.02118E-001	4.03902E-004	...........
	95	24	-3.02312E-001	-3.01999E-001	4.03361E-004	...........
	96	24.25	-3.02215E-001	-3.01892E-001	4.00694E-004	...........
	97	24.5	-3.02115E-001	-3.01801E-001	4.01194E-004	...........
	98	24.75	-3.02011E-001	-3.01691E-001	4.01944E-004	...........
	99	25	-3.01907E-001	-3.01572E-001	3.98527E-004	...........
	100	25.25	-3.01802E-001	-3.01468E-001	4.04611E-004	...........
	101	25.5	-3.01694E-001	-3.01358E-001	4.02902E-004	...........
	102	25.75	-3.01585E-001	-3.01226E-001	4.02027E-004	...........
	103	26	-3.01473E-001	-3.01102E-001	3.99652E-004	...........
	104	26.25	-3.01357E-001	-3.00992E-001	4.06944E-004	...........
	105	26.5	-3.01238E-001	-3.00864E-001	4.07402E-004	...........
	106	26.75	-3.01117E-001	-3.00728E-001	4.06486E-004	...........
	107	27	-3.00994E-001	-3.00611E-001	4.04527E-004	...........
	108	27.25	-3.00870E-001	-3.00474E-001	4.13277E-004	...........
	109	27.5	-3.00743E-001	-3.00329E-001	4.09444E-004	...........
	110	27.75	-3.00613E-001	-3.00196E-001	4.07069E-004	...........
	111	28	-3.00480E-001	-3.00047E-001	4.09402E-004	...........
	112	28.25	-3.00342E-001	-2.99903E-001	4.02527E-004	...........
	113	28.5	-3.00202E-001	-2.99772E-001	4.04277E-004	...........
	114	28.75	-3.00060E-001	-2.99614E-001	4.07652E-004	...........
	115	29	-2.99918E-001	-2.99470E-001	4.09944E-004	...........
	116	29.25	-2.99774E-001	-2.99333E-001	4.08486E-004	...........
	117	29.5	-2.99629E-001	-2.99172E-001	4.08027E-004	...........
	118	29.75	-2.99484E-001	-2.99040E-001	4.09611E-004	...........
	119	30	-2.99338E-001	-2.98889E-001	4.09902E-004	...........
	120	30.25	-2.99192E-001	-2.98733E-001	4.14944E-004	...........
	121	30.5	-2.99045E-001	-2.98585E-001	4.11944E-004	...........
	122	30.75	-2.98897E-001	-2.98419E-001	4.11069E-004	...........
	123	31	-2.98746E-001	-2.98270E-001	4.11194E-004	...........
	124	31.25	-2.98592E-001	-2.98110E-001	4.05861E-004	...........
	125	31.5	-2.98436E-001	-2.97938E-001	4.05444E-004	...........
	126	31.75	-2.98278E-001	-2.97787E-001	4.07819E-004	...........
	127	32	-2.98118E-001	-2.97619E-001	4.06194E-004	...........
	128	32.25	-2.97957E-001	-2.97460E-001	4.02277E-004	...........
	129	32.5	-2.97795E-001	-2.97286E-001	4.06777E-004	...........
	130	32.75	-2.97632E-001	-2.97110E-001	4.05777E-004	...........
	131	33	-2.97466E-001	-2.96956E-001	4.06611E-004	...........
	132	33.25	-2.97299E-001	-2.96769E-001	4.11694E-004	...........
	133	33.5	-2.97129E-001	-2.96602E-001	4.09986E-004	...........
	134	33.75	-2.96959E-001	-2.96426E-001	4.04236E-004	...........
	135	34	-2.96787E-001	-2.96251E-001	4.00444E-004	...........
	136	34.25	-2.96613E-001	-2.96071E-001	4.04694E-004	...........
	137	34.5	-2.96439E-001	-2.95894E-001	4.05361E-004	...........
	138	34.75	-2.96263E-001	-2.95718E-001	4.05944E-004	...........
	139	35	-2.96085E-001	-2.95522E-001	4.04069E-004	...........
	140	35.25	-2.95904E-001	-2.95236E-001	4.06152E-004	...........
	141	35.5	-2.95707E-001	-2.94776E-001	4.00319E-004	...........
	142	35.75	-2.95472E-001	-2.94572E-001	4.04027E-004	...........
	143	36	-2.95195E-001	-2.94351E-001	4.06277E-004	...........
	144	36.25	-2.94901E-001	-2.94134E-001	4.03777E-004	...........
	145	36.5	-2.94624E-001	-2.93878E-001	4.05486E-004	...........
	146	36.75	-2.94373E-001	-2.93700E-001	4.09569E-004	...........
	147	37	-2.94140E-001	-2.93460E-001	4.10319E-004	...........
	148	37.25	-2.93918E-001	-2.93283E-001	4.08777E-004	...........
	149	37.5	-2.93704E-001	-2.93078E-001	4.09611E-004	...........
	150	37.75	-2.93496E-001	-2.92880E-001	4.11569E-004	...........
	151	38	-2.93293E-001	-2.92666E-001	4.12152E-004	...........
	152	38.25	-2.93092E-001	-2.92489E-001	4.07569E-004	...........
	153	38.5	-2.92892E-001	-2.92262E-001	4.13361E-004	...........
	154	38.75	-2.92691E-001	-2.92074E-001	4.13861E-004	...........
	155	39	-2.92490E-001	-2.91863E-001	4.06819E-004	...........
	156	39.25	-2.92288E-001	-2.91667E-001	4.10444E-004	...........
	157	39.5	-2.92085E-001	-2.91457E-001	4.04486E-004	...........
	158	39.75	-2.91882E-001	-2.91240E-001	4.10319E-004	...........
	159	40	-2.91677E-001	-2.91036E-001	4.04569E-004	...........
	160	40.25	-2.91470E-001	-2.90827E-001	4.14652E-004	...........
	161	40.5	-2.91261E-001	-2.90620E-001	4.11361E-004	...........
	162	40.75	-2.91052E-001	-2.90407E-001	4.05319E-004	...........
	163	41	-2.90843E-001	-2.90206E-001	4.04444E-004	...........
	164	41.25	-2.90634E-001	-2.89966E-001	4.10944E-004	...........
	165	41.5	-2.90424E-001	-2.89784E-001	4.10027E-004	...........
	166	41.75	-2.90212E-001	-2.89541E-001	4.14152E-004	...........
	167	42	-2.89998E-001	-2.89358E-001	4.08444E-004	...........
	168	42.25	-2.89785E-001	-2.89102E-001	4.06902E-004	...........
	169	42.5	-2.89571E-001	-2.88913E-001	4.09444E-004	...........
	170	42.75	-2.89354E-001	-2.88670E-001	4.10111E-004	...........
	171	43	-2.89135E-001	-2.88424E-001	4.11861E-004	...........
	172	43.25	-2.88912E-001	-2.88202E-001	4.05319E-004	...........
	173	43.5	-2.88683E-001	-2.87952E-001	4.03777E-004	...........
	174	43.75	-2.88450E-001	-2.87764E-001	4.11361E-004	...........
	175	44	-2.88218E-001	-2.87520E-001	4.10277E-004	...........
	176	44.25	-2.87990E-001	-2.87324E-001	4.07236E-004	...........
	177	44.5	-2.87767E-001	-2.87082E-001	4.06986E-004	...........
	178	44.75	-2.87548E-001	-2.86883E-001	4.11319E-004	...........
	179	45	-2.87329E-001	-2.86650E-001	4.09402E-004	...........
	180	45.25	-2.87110E-001	-2.86427E-001	4.09986E-004	...........
	181	45.5	-2.86890E-001	-2.86218E-001	4.07152E-004	...........
	182	45.75	-2.86669E-001	-2.85971E-001	4.06152E-004	...........
	183	46	-2.86447E-001	-2.85754E-001	4.10319E-004	...........
	184	46.25	-2.86222E-001	-2.85492E-001	4.08902E-004	...........
	185	46.5	-2.85992E-001	-2.85254E-001	4.03819E-004	...........
	186	46.75	-2.85757E-001	-2.85008E-001	4.13319E-004	...........
	187	47	-2.85515E-001	-2.84731E-001	4.09069E-004	...........
	188	47.25	-2.85268E-001	-2.84493E-001	4.09819E-004	...........
	189	47.5	-2.85017E-001	-2.84214E-001	4.16194E-004	...........
	190	47.75	-2.84760E-001	-2.83935E-001	4.10819E-004	...........
	191	48	-2.84498E-001	-2.83678E-001	4.12194E-004	...........
	192	48.25	-2.84232E-001	-2.83401E-001	4.09611E-004	...........
	193	48.5	-2.83963E-001	-2.83085E-001	4.12569E-004	...........
	194	48.75	-2.83689E-001	-2.82831E-001	4.04527E-004	...........
	195	49	-2.83410E-001	-2.82554E-001	4.08861E-004	...........
	196	49.25	-2.83129E-001	-2.82258E-001	4.07527E-004	...........
	197	49.5	-2.82848E-001	-2.81967E-001	4.12069E-004	...........
	198	49.75	-2.82566E-001	-2.81695E-001	4.08736E-004	...........
	199	50	-2.82282E-001	-2.81411E-001	4.08069E-004	...........
	200	50.25	-2.81997E-001	-2.81130E-001	4.11611E-004	...........
	201	50.5	-2.81715E-001	-2.80859E-001	4.10986E-004	...........
	202	50.75	-2.81434E-001	-2.80584E-001	4.09319E-004	...........
	203	51	-2.81155E-001	-2.80265E-001	4.07527E-004	...........
	204	51.25	-2.80874E-001	-2.79983E-001	4.07152E-004	...........
	205	51.5	-2.80589E-001	-2.79709E-001	4.08527E-004	...........
	206	51.75	-2.80300E-001	-2.79412E-001	4.15152E-004	...........
	207	52	-2.80011E-001	-2.79117E-001	4.16736E-004	...........
	208	52.25	-2.79723E-001	-2.78830E-001	4.14069E-004	...........
	209	52.5	-2.79434E-001	-2.78556E-001	4.18444E-004	...........
	210	52.75	-2.79145E-001	-2.78258E-001	4.16986E-004	...........
	211	53	-2.78857E-001	-2.77966E-001	4.14111E-004	...........
	212	53.25	-2.78569E-001	-2.77678E-001	4.14736E-004	...........
	213	53.5	-2.78280E-001	-2.77388E-001	4.13236E-004	...........
	214	53.75	-2.77990E-001	-2.77090E-001	4.15694E-004	...........
	215	54	-2.77700E-001	-2.76803E-001	4.16486E-004	...........
	216	54.25	-2.77408E-001	-2.76522E-001	4.08861E-004	...........
	217	54.5	-2.77117E-001	-2.76229E-001	4.15027E-004	...........
	218	54.75	-2.76828E-001	-2.75928E-001	4.04486E-004	...........
	219	55	-2.76539E-001	-2.75646E-001	4.07569E-004	...........
	220	55.25	-2.76248E-001	-2.75358E-001	4.09694E-004	...........
	221	55.5	-2.75958E-001	-2.75063E-001	4.08944E-004	...........
	222	55.75	-2.75667E-001	-2.74767E-001	4.06777E-004	...........
	223	56	-2.75377E-001	-2.74488E-001	4.09527E-004	...........
	224	56.25	-2.75086E-001	-2.74202E-001	4.12236E-004	...........
	225	56.5	-2.74797E-001	-2.73905E-001	4.07111E-004	...........
	226	56.75	-2.74508E-001	-2.73611E-001	4.09361E-004	...........
	227	57	-2.74219E-001	-2.73331E-001	4.05736E-004	...........
	228	57.25	-2.73929E-001	-2.73031E-001	4.05902E-004	...........
	229	57.5	-2.73638E-001	-2.72726E-001	4.09527E-004	...........
	230	57.75	-2.73345E-001	-2.72427E-001	4.11027E-004	...........
	231	58	-2.73050E-001	-2.72136E-001	4.13194E-004	...........
	232	58.25	-2.72752E-001	-2.71846E-001	4.06402E-004	...........
	233	58.5	-2.72455E-001	-2.71546E-001	4.13236E-004	...........
	234	58.75	-2.72160E-001	-2.71260E-001	4.13111E-004	...........
	235	59	-2.71866E-001	-2.70974E-001	4.16319E-004	...........
	236	59.25	-2.71574E-001	-2.70685E-001	4.04819E-004	...........
	237	59.5	-2.71284E-001	-2.70393E-001	4.02944E-004	...........
	238	59.75	-2.70995E-001	-2.70114E-001	4.06277E-004	...........
	239	60	-2.70707E-001	-2.69822E-001	3.97694E-004	...........
	240	60.25	-2.70419E-001	-2.69525E-001	4.05402E-004	...........
	241	60.5	-2.70131E-001	-2.69248E-001	4.02069E-004	...........
	242	60.75	-2.69843E-001	-2.68958E-001	4.07486E-004	...........
	243	61	-2.69555E-001	-2.68663E-001	4.08111E-004	...........
	244	61.25	-2.69265E-001	-2.68319E-001	4.06986E-004	...........
	245	61.5	-2.68971E-001	-2.68059E-001	4.12777E-004	...........
	246	61.75	-2.68673E-001	-2.67788E-001	4.05111E-004	...........
	247	62	-2.68375E-001	-2.67484E-001	4.07652E-004	...........
	248	62.25	-2.68083E-001	-2.67173E-001	4.06277E-004	...........
	249	62.5	-2.67794E-001	-2.66914E-001	4.08152E-004	...........
	250	62.75	-2.67504E-001	-2.66623E-001	4.03819E-004	...........
	251	63	-2.67215E-001	-2.66318E-001	4.07111E-004	...........
	252	63.25	-2.66927E-001	-2.66034E-001	4.13361E-004	...........
	253	63.5	-2.66638E-001	-2.65766E-001	4.06444E-004	...........
	254	63.75	-2.66350E-001	-2.65457E-001	4.12777E-004	...........
	255	64	-2.66062E-001	-2.65155E-001	4.13027E-004	...........
	256	64.25	-2.65773E-001	-2.64900E-001	4.12277E-004	...........
	257	64.5	-2.65483E-001	-2.64610E-001	4.12486E-004	...........
	258	64.75	-2.65196E-001	-2.64304E-001	4.08944E-004	...........
	259	65	-2.64910E-001	-2.64034E-001	4.11652E-004	...........
	260	65.25	-2.64625E-001	-2.63761E-001	4.11819E-004	...........
	261	65.5	-2.64340E-001	-2.63444E-001	4.11944E-004	...........
	262	65.75	-2.64054E-001	-2.63153E-001	4.10861E-004	...........
	263	66	-2.63766E-001	-2.62887E-001	4.12652E-004	...........
	264	66.25	-2.63476E-001	-2.62609E-001	4.17152E-004	...........
	265	66.5	-2.63188E-001	-2.62290E-001	4.11486E-004	...........
	266	66.75	-2.62903E-001	-2.62019E-001	4.09777E-004	...........
	267	67	-2.62616E-001	-2.61748E-001	4.10861E-004	...........
	268	67.25	-2.62329E-001	-2.61450E-001	4.12736E-004	...........
	269	67.5	-2.62044E-001	-2.61149E-001	4.14652E-004	...........
	270	67.75	-2.61758E-001	-2.60876E-001	4.12569E-004	...........
	271	68	-2.61470E-001	-2.60599E-001	4.05944E-004	...........
	272	68.25	-2.61183E-001	-2.60295E-001	4.09444E-004	...........
	273	68.5	-2.60897E-001	-2.60014E-001	4.08319E-004	...........
	274	68.75	-2.60611E-001	-2.59744E-001	4.11569E-004	...........
	275	69	-2.60325E-001	-2.59438E-001	4.13694E-004	...........
	276	69.25	-2.60039E-001	-2.59133E-001	4.10319E-004	...........
	277	69.5	-2.59751E-001	-2.58866E-001	4.09902E-004	...........
	278	69.75	-2.59461E-001	-2.58581E-001	4.03861E-004	...........
	279	70	-2.59171E-001	-2.58277E-001	4.01861E-004	...........
	280	70.25	-2.58883E-001	-2.57978E-001	4.08319E-004	...........
	281	70.5	-2.58593E-001	-2.57707E-001	4.11361E-004	...........
	282	70.75	-2.58302E-001	-2.57400E-001	3.99361E-004	...........
	283	71	-2.58009E-001	-2.57051E-001	4.01736E-004	...........
	284	71.25	-2.57711E-001	-2.56753E-001	4.09902E-004	...........
	285	71.5	-2.57406E-001	-2.56510E-001	4.05069E-004	...........
	286	71.75	-2.57103E-001	-2.56312E-001	4.05319E-004	...........
	287	72	-2.56816E-001	-2.56054E-001	4.10611E-004	...........
	288	72.25	-2.56553E-001	-2.55786E-001	4.02777E-004	...........
	289	72.5	-2.56304E-001	-2.55443E-001	4.07819E-004	...........
	290	72.75	-2.56049E-001	-2.55192E-001	4.04652E-004	...........
	291	73	-2.55778E-001	-2.54896E-001	4.09236E-004	...........
	292	73.25	-2.55495E-001	-2.54595E-001	4.06902E-004	...........
	293	73.5	-2.55206E-001	-2.54293E-001	4.08986E-004	...........
	294	73.75	-2.54913E-001	-2.54032E-001	4.14277E-004	...........
	295	74	-2.54621E-001	-2.53755E-001	4.13152E-004	...........
	296	74.25	-2.54333E-001	-2.53455E-001	4.02111E-004	...........
	297	74.5	-2.54049E-001	-2.53157E-001	4.01944E-004	...........
	298	74.75	-2.53764E-001	-2.52892E-001	4.01361E-004	...........
	299	75	-2.53478E-001	-2.52615E-001	4.04319E-004	...........
	300	75.25	-2.53193E-001	-2.52316E-001	4.02902E-004	...........
	301	75.5	-2.52911E-001	-2.52040E-001	4.08902E-004	...........
	302	75.75	-2.52628E-001	-2.51764E-001	4.03027E-004	...........
	303	76	-2.52346E-001	-2.51483E-001	4.06402E-004	...........
	304	76.25	-2.52064E-001	-2.51205E-001	4.06486E-004	...........
	305	76.5	-2.51785E-001	-2.50948E-001	4.11319E-004	...........
	306	76.75	-2.51508E-001	-2.50655E-001	4.04402E-004	...........
	307	77	-2.51232E-001	-2.50366E-001	4.04152E-004	...........
	308	77.25	-2.50955E-001	-2.50094E-001	4.09444E-004	...........
	309	77.5	-2.50676E-001	-2.49815E-001	4.05652E-004	...........
	310	77.75	-2.50395E-001	-2.49523E-001	4.01569E-004	...........
	311	78	-2.50114E-001	-2.49250E-001	4.04902E-004	...........
	312	78.25	-2.49832E-001	-2.48973E-001	4.07986E-004	...........
	313	78.5	-2.49551E-001	-2.48684E-001	4.01027E-004	...........
	314	78.75	-2.49271E-001	-2.48395E-001	4.06944E-004	...........
	315	79	-2.48989E-001	-2.48131E-001	4.07319E-004	...........
	316	79.25	-2.48708E-001	-2.47849E-001	4.01736E-004	...........
	317	79.5	-2.48427E-001	-2.47571E-001	4.03944E-004	...........
	318	79.75	-2.48148E-001	-2.47304E-001	4.11652E-004	...........
	319	80	-2.47872E-001	-2.47024E-001	4.08402E-004	...........
	320	80.25	-2.47596E-001	-2.46739E-001	4.08736E-004	...........
	321	80.5	-2.47320E-001	-2.46470E-001	4.06986E-004	...........
	322	80.75	-2.47043E-001	-2.46195E-001	4.07694E-004	...........
	323	81	-2.46766E-001	-2.45903E-001	4.09694E-004	...........
	324	81.25	-2.46489E-001	-2.45629E-001	4.10444E-004	...........
	325	81.5	-2.46210E-001	-2.45361E-001	4.12319E-004	...........
	326	81.75	-2.45931E-001	-2.45077E-001	4.08819E-004	...........
	327	82	-2.45654E-001	-2.44804E-001	4.07777E-004	...........
	328	82.25	-2.45378E-001	-2.44547E-001	4.07652E-004	...........
	329	82.5	-2.45103E-001	-2.44258E-001	4.11986E-004	...........
	330	82.75	-2.44830E-001	-2.43982E-001	4.13319E-004	...........
	331	83	-2.44557E-001	-2.43720E-001	4.14777E-004	...........
	332	83.25	-2.44283E-001	-2.43455E-001	4.10152E-004	...........
	333	83.5	-2.44011E-001	-2.43175E-001	4.13944E-004	...........
	334	83.75	-2.43739E-001	-2.42878E-001	4.06986E-004	...........
	335	84	-2.43466E-001	-2.42610E-001	4.15152E-004	...........
	336	84.25	-2.43189E-001	-2.42345E-001	4.10902E-004	...........
	337	84.5	-2.42912E-001	-2.42074E-001	4.13694E-004	...........
	338	84.75	-2.42636E-001	-2.41802E-001	4.19944E-004	...........
	339	85	-2.42364E-001	-2.41539E-001	4.18569E-004	...........
	340	85.25	-2.42094E-001	-2.41272E-001	4.15819E-004	...........
	341	85.5	-2.41826E-001	-2.41006E-001	4.12361E-004	...........
	342	85.75	-2.41559E-001	-2.40738E-001	4.14069E-004	...........
	343	86	-2.41293E-001	-2.40470E-001	4.13402E-004	...........
	344	86.25	-2.41026E-001	-2.40206E-001	4.15610E-004	...........
	345	86.5	-2.40759E-001	-2.39942E-001	4.10444E-004	...........
	346	86.75	-2.40493E-001	-2.39669E-001	4.14319E-004	...........
	347	87	-2.40226E-001	-2.39389E-001	4.16569E-004	...........
	348	87.25	-2.39958E-001	-2.39119E-001	4.18985E-004	...........
	349	87.5	-2.39687E-001	-2.38849E-001	4.13402E-004	...........
	350	87.75	-2.39414E-001	-2.38584E-001	4.16944E-004	...........
	351	88	-2.39143E-001	-2.38325E-001	4.15819E-004	...........
	352	88.25	-2.38874E-001	-2.38072E-001	4.11069E-004	...........
	353	88.5	-2.38609E-001	-2.37814E-001	4.14444E-004	...........
	354	88.75	-2.38348E-001	-2.37559E-001	4.10486E-004	...........
	355	89	-2.38090E-001	-2.37305E-001	4.05694E-004	...........
	356	89.25	-2.37834E-001	-2.37050E-001	4.10236E-004	...........
	357	89.5	-2.37579E-001	-2.36787E-001	4.10486E-004	...........
	358	89.75	-2.37323E-001	-2.36530E-001	4.16694E-004	...........
	359	90	-2.37066E-001	-2.36267E-001	4.11861E-004	...........
	360	90.25	-2.36808E-001	-2.36028E-001	4.15610E-004	...........
	361	90.5	-2.36551E-001	-2.35789E-001	4.09027E-004	...........
	362	90.75	-2.36298E-001	-2.35556E-001	4.07527E-004	...........
	363	91	-2.36051E-001	-2.35312E-001	4.08986E-004	...........
	364	91.25	-2.35810E-001	-2.35088E-001	4.12486E-004	...........
	365	91.5	-2.35572E-001	-2.34843E-001	4.15902E-004	...........
	366	91.75	-2.35335E-001	-2.34580E-001	4.14277E-004	...........
	367	92	-2.35096E-001	-2.34329E-001	4.11194E-004	...........
	368	92.25	-2.34852E-001	-2.34075E-001	4.17236E-004	...........
	369	92.5	-2.34602E-001	-2.33831E-001	4.16111E-004	...........
	370	92.75	-2.34351E-001	-2.33586E-001	4.07194E-004	...........
	371	93	-2.34100E-001	-2.33342E-001	4.10986E-004	...........
	372	93.25	-2.33852E-001	-2.33104E-001	4.11902E-004	...........
	373	93.5	-2.33606E-001	-2.32857E-001	4.06361E-004	...........
	374	93.75	-2.33363E-001	-2.32611E-001	4.09777E-004	...........
	375	94	-2.33119E-001	-2.32375E-001	4.10277E-004	...........
	376	94.25	-2.32876E-001	-2.32133E-001	4.12694E-004	...........
	377	94.5	-2.32634E-001	-2.31901E-001	4.09944E-004	...........
	378	94.75	-2.32393E-001	-2.31662E-001	4.12236E-004	...........
	379	95	-2.32155E-001	-2.31430E-001	4.08444E-004	...........
	380	95.25	-2.31918E-001	-2.31199E-001	4.06861E-004	...........
	381	95.5	-2.31683E-001	-2.30964E-001	4.09944E-004	...........
	382	95.75	-2.31449E-001	-2.30729E-001	4.05319E-004	...........
	383	96	-2.31216E-001	-2.30494E-001	4.06611E-004	...........
	384	96.25	-2.30982E-001	-2.30265E-001	4.11319E-004	...........
	385	96.5	-2.30748E-001	-2.30031E-001	4.07902E-004	...........
	386	96.75	-2.30515E-001	-2.29802E-001	4.11361E-004	...........
	387	97	-2.30282E-001	-2.29574E-001	4.12611E-004	...........
	388	97.25	-2.30051E-001	-2.29346E-001	4.11069E-004	...........
	389	97.5	-2.29821E-001	-2.29113E-001	4.14069E-004	...........
	390	97.75	-2.29591E-001	-2.28887E-001	4.14402E-004	...........
	391	98	-2.29362E-001	-2.28665E-001	4.13402E-004	...........
	392	98.25	-2.29134E-001	-2.28442E-001	4.09486E-004	...........
	393	98.5	-2.28907E-001	-2.28195E-001	4.09236E-004	...........
	394	98.75	-2.28680E-001	-2.27954E-001	4.05027E-004	...........
	395	99	-2.28449E-001	-2.27722E-001	4.17319E-004	...........
	396	99.25	-2.28214E-001	-2.27497E-001	4.10777E-004	...........
	397	99.5	-2.27979E-001	-2.27261E-001	4.10944E-004	...........
	398	99.75	-2.27744E-001	-2.27033E-001	4.11652E-004	...........
	399	100	-2.27512E-001	-2.26808E-001	4.14319E-004	...........
	400	100.25	-2.27281E-001	-2.26583E-001	4.17569E-004	...........
	401	100.5	-2.27053E-001	-2.26361E-001	4.16736E-004	...........
	402	100.75	-2.26826E-001	-2.26132E-001	4.17819E-004	...........
	403	101	-2.26601E-001	-2.25903E-001	4.14486E-004	...........
	404	101.25	-2.26375E-001	-2.25674E-001	4.17902E-004	...........
	405	101.5	-2.26149E-001	-2.25457E-001	4.15277E-004	...........
	406	101.75	-2.25922E-001	-2.25241E-001	4.19027E-004	...........
	407	102	-2.25697E-001	-2.25017E-001	4.22319E-004	...........
	408	102.25	-2.25475E-001	-2.24800E-001	4.14027E-004	...........
	409	102.5	-2.25255E-001	-2.24586E-001	4.14902E-004	...........
	410	102.75	-2.25036E-001	-2.24371E-001	4.22360E-004	...........
	411	103	-2.24819E-001	-2.24153E-001	4.16944E-004	...........
	412	103.25	-2.24603E-001	-2.23935E-001	4.10861E-004	...........
	413	103.5	-2.24386E-001	-2.23723E-001	4.16944E-004	...........
	414	103.75	-2.24170E-001	-2.23514E-001	4.16402E-004	...........
	415	104	-2.23955E-001	-2.23303E-001	4.22402E-004	...........
	416	104.25	-2.23742E-001	-2.23096E-001	4.18944E-004	...........
	417	104.5	-2.23531E-001	-2.22884E-001	4.21319E-004	...........
	418	104.75	-2.23321E-001	-2.22684E-001	4.17402E-004	...........
	419	105	-2.23112E-001	-2.22475E-001	4.14777E-004	...........
	420	105.25	-2.22904E-001	-2.22260E-001	4.16194E-004	...........
	421	105.5	-2.22697E-001	-2.22058E-001	4.14319E-004	...........
	422	105.75	-2.22489E-001	-2.21851E-001	4.08361E-004	...........
	423	106	-2.22281E-001	-2.21640E-001	4.16402E-004	...........
	424	106.25	-2.22073E-001	-2.21423E-001	4.10736E-004	...........
	425	106.5	-2.21864E-001	-2.21218E-001	4.09694E-004	...........
	426	106.75	-2.21654E-001	-2.21014E-001	4.08194E-004	...........
	427	107	-2.21445E-001	-2.20811E-001	4.09777E-004	...........
	428	107.25	-2.21237E-001	-2.20614E-001	4.11111E-004	...........
	429	107.5	-2.21032E-001	-2.20416E-001	4.14027E-004	...........
	430	107.75	-2.20829E-001	-2.20217E-001	4.09277E-004	...........
	431	108	-2.20629E-001	-2.20012E-001	4.07569E-004	...........
	432	108.25	-2.20430E-001	-2.19812E-001	4.10569E-004	...........
	433	108.5	-2.20230E-001	-2.19618E-001	4.11361E-004	...........
	434	108.75	-2.20030E-001	-2.19420E-001	4.12319E-004	...........
	435	109	-2.19831E-001	-2.19225E-001	4.15986E-004	...........
	436	109.25	-2.19633E-001	-2.19032E-001	4.10986E-004	...........
	437	109.5	-2.19436E-001	-2.18828E-001	4.12986E-004	...........
	438	109.75	-2.19240E-001	-2.18630E-001	4.20152E-004	...........
	439	110	-2.19043E-001	-2.18434E-001	4.19194E-004	...........
	440	110.25	-2.18845E-001	-2.18242E-001	4.14319E-004	...........
	441	110.5	-2.18648E-001	-2.18045E-001	4.17361E-004	...........
	442	110.75	-2.18451E-001	-2.17852E-001	4.18361E-004	...........
	443	111	-2.18256E-001	-2.17661E-001	4.15861E-004	...........
	444	111.25	-2.18062E-001	-2.17470E-001	4.15194E-004	...........
	445	111.5	-2.17868E-001	-2.17278E-001	4.13986E-004	...........
	446	111.75	-2.17676E-001	-2.17085E-001	4.12611E-004	...........
	447	112	-2.17484E-001	-2.16891E-001	4.09361E-004	...........
	448	112.25	-2.17292E-001	-2.16703E-001	4.13402E-004	...........
	449	112.5	-2.17100E-001	-2.16512E-001	4.16111E-004	...........
	450	112.75	-2.16908E-001	-2.16318E-001	4.10569E-004	...........
	451	113	-2.16717E-001	-2.16129E-001	4.06361E-004	...........
	452	113.25	-2.16526E-001	-2.15939E-001	4.10069E-004	...........
	453	113.5	-2.16335E-001	-2.15753E-001	4.09902E-004	...........
	454	113.75	-2.16145E-001	-2.15567E-001	4.07861E-004	...........
	455	114	-2.15956E-001	-2.15387E-001	4.13611E-004	...........
	456	114.25	-2.15769E-001	-2.15200E-001	4.14486E-004	...........
	457	114.5	-2.15583E-001	-2.15017E-001	4.10527E-004	...........
	458	114.75	-2.15399E-001	-2.14833E-001	4.09069E-004	...........
	459	115	-2.15215E-001	-2.14649E-001	4.05944E-004	...........
	460	115.25	-2.15031E-001	-2.14470E-001	4.07111E-004	...........
	461	115.5	-2.14848E-001	-2.14284E-001	4.09652E-004	...........
	462	115.75	-2.14665E-001	-2.14101E-001	4.12694E-004	...........
	463	116	-2.14482E-001	-2.13919E-001	4.06944E-004	...........
	464	116.25	-2.14299E-001	-2.13738E-001	4.10611E-004	...........
	465	116.5	-2.14116E-001	-2.13556E-001	4.06694E-004	...........
	466	116.75	-2.13934E-001	-2.13375E-001	4.14611E-004	...........
	467	117	-2.13752E-001	-2.13194E-001	4.11527E-004	...........
	468	117.25	-2.13570E-001	-2.13011E-001	4.05236E-004	...........
	469	117.5	-2.13389E-001	-2.12835E-001	4.15944E-004	...........
	470	117.75	-2.13208E-001	-2.12657E-001	4.17944E-004	...........
	471	118	-2.13028E-001	-2.12483E-001	4.08736E-004	...........
	472	118.25	-2.12849E-001	-2.12302E-001	4.19277E-004	...........
	473	118.5	-2.12672E-001	-2.12125E-001	4.18444E-004	...........
	474	118.75	-2.12495E-001	-2.11949E-001	4.19235E-004	...........
	475	119	-2.12317E-001	-2.11777E-001	4.18985E-004	...........
	476	119.25	-2.12140E-001	-2.11602E-001	4.14736E-004	...........
	477	119.5	-2.11965E-001	-2.11432E-001	4.08236E-004	...........
	478	119.75	-2.11791E-001	-2.11260E-001	4.14694E-004	...........
	479	120	-2.11617E-001	-2.11082E-001	4.16402E-004	...........
	480	120.25	-2.11444E-001	-2.10913E-001	4.17736E-004	...........
	481	120.5	-2.11271E-001	-2.10739E-001	4.12819E-004	...........
	482	120.75	-2.11098E-001	-2.10567E-001	4.15986E-004	...........
	483	121	-2.10926E-001	-2.10398E-001	4.15361E-004	...........
	484	121.25	-2.10753E-001	-2.10225E-001	4.20111E-004	...........
	485	121.5	-2.10582E-001	-2.10052E-001	4.14902E-004	...........
	486	121.75	-2.10410E-001	-2.09889E-001	4.18111E-004	...........
	487	122	-2.10239E-001	-2.09722E-001	4.16736E-004	...........
	488	122.25	-2.10070E-001	-2.09554E-001	4.18694E-004	...........
	489	122.5	-2.09901E-001	-2.09386E-001	4.14319E-004	...........
	490	122.75	-2.09734E-001	-2.09213E-001	4.16402E-004	...........
	491	123	-2.09566E-001	-2.09047E-001	4.20069E-004	...........
	492	123.25	-2.09398E-001	-2.08881E-001	4.19610E-004	...........
	493	123.5	-2.09229E-001	-2.08712E-001	4.13152E-004	...........
	494	123.75	-2.09061E-001	-2.08546E-001	4.19152E-004	...........
	495	124	-2.08893E-001	-2.08380E-001	4.19069E-004	...........
	496	124.25	-2.08726E-001	-2.08219E-001	4.10569E-004	...........
	497	124.5	-2.08560E-001	-2.08053E-001	4.14111E-004	...........
	498	124.75	-2.08395E-001	-2.07892E-001	4.21569E-004	...........
	499	125	-2.08231E-001	-2.07730E-001	4.18152E-004	...........
	500	125.25	-2.08067E-001	-2.07567E-001	4.17819E-004	...........
	501	125.5	-2.07905E-001	-2.07408E-001	4.23027E-004	...........
	502	125.75	-2.07743E-001	-2.07246E-001	4.23902E-004	...........
	503	126	-2.07581E-001	-2.07084E-001	4.15319E-004	...........
	504	126.25	-2.07420E-001	-2.06927E-001	4.15819E-004	...........
	505	126.5	-2.07259E-001	-2.06771E-001	4.15236E-004	...........
	506	126.75	-2.07099E-001	-2.06615E-001	4.18652E-004	...........
	507	127	-2.06941E-001	-2.06459E-001	4.15819E-004	...........
	508	127.25	-2.06783E-001	-2.06301E-001	4.21694E-004	...........
	509	127.5	-2.06627E-001	-2.06143E-001	4.20652E-004	...........
	510	127.75	-2.06470E-001	-2.05985E-001	4.20152E-004	...........
	511	128	-2.06313E-001	-2.05829E-001	4.20610E-004	...........
	512	128.25	-2.06155E-001	-2.05674E-001	4.24777E-004	...........
	513	128.5	-2.05998E-001	-2.05523E-001	4.18902E-004	...........
	514	128.75	-2.05842E-001	-2.05371E-001	4.18527E-004	...........
	515	129	-2.05688E-001	-2.05216E-001	4.18069E-004	...........
	516	129.25	-2.05535E-001	-2.05067E-001	4.21194E-004	...........
	517	129.5	-2.05382E-001	-2.04915E-001	4.19235E-004	...........
	518	129.75	-2.05230E-001	-2.04764E-001	4.16611E-004	...........
	519	130	-2.05078E-001	-2.04609E-001	4.17444E-004	...........
	520	130.25	-2.04927E-001	-2.04459E-001	4.17319E-004	...........
	521	130.5	-2.04775E-001	-2.04310E-001	4.17819E-004	...........
	522	130.75	-2.04623E-001	-2.04161E-001	4.18485E-004	...........
	523	131	-2.04472E-001	-2.04014E-001	4.24152E-004	...........
	524	131.25	-2.04322E-001	-2.03867E-001	4.17569E-004	...........
	525	131.5	-2.04173E-001	-2.03721E-001	4.18444E-004	...........
	526	131.75	-2.04026E-001	-2.03571E-001	4.21319E-004	...........
	527	132	-2.03878E-001	-2.03423E-001	4.14611E-004	...........
	528	132.25	-2.03731E-001	-2.03276E-001	4.14611E-004	...........
	529	132.5	-2.03583E-001	-2.03133E-001	4.14486E-004	...........
	530	132.75	-2.03436E-001	-2.02982E-001	4.15152E-004	...........
	531	133	-2.03289E-001	-2.02837E-001	4.11027E-004	...........
	532	133.25	-2.03142E-001	-2.02689E-001	4.20860E-004	...........
	533	133.5	-2.02995E-001	-2.02544E-001	4.19944E-004	...........
	534	133.75	-2.02848E-001	-2.02404E-001	4.10152E-004	...........
	535	134	-2.02702E-001	-2.02257E-001	4.14819E-004	...........
	536	134.25	-2.02557E-001	-2.02109E-001	4.12402E-004	...........
	537	134.5	-2.02412E-001	-2.01964E-001	4.18694E-004	...........
	538	134.75	-2.02267E-001	-2.01823E-001	4.09027E-004	...........
	539	135	-2.02122E-001	-2.01679E-001	4.08819E-004	...........
	540	135.25	-2.01977E-001	-2.01540E-001	4.14069E-004	...........
	541	135.5	-2.01834E-001	-2.01397E-001	4.18735E-004	...........
	542	135.75	-2.01691E-001	-2.01254E-001	4.12236E-004	...........
	543	136	-2.01549E-001	-2.01108E-001	4.12569E-004	...........
	544	136.25	-2.01408E-001	-2.01006E-001	4.11819E-004	...........
	545	136.5	-2.01269E-001	-2.00856E-001	4.15944E-004	...........
	546	136.75	-2.01133E-001	-2.00710E-001	4.17111E-004	...........
	547	137	-2.00999E-001	-2.00562E-001	4.16402E-004	...........
	548	137.25	-2.00862E-001	-2.00420E-001	4.08194E-004	...........
	549	137.5	-2.00721E-001	-2.00290E-001	4.11152E-004	...........
	550	137.75	-2.00578E-001	-2.00155E-001	4.19069E-004	...........
	551	138	-2.00438E-001	-2.00015E-001	4.14111E-004	...........
	552	138.25	-2.00300E-001	-1.99877E-001	4.12902E-004	...........
	553	138.5	-2.00163E-001	-1.99747E-001	4.11819E-004	...........
	554	138.75	-2.00027E-001	-1.99611E-001	4.14777E-004	...........
	555	139	-1.99891E-001	-1.99475E-001	4.15819E-004	...........
	556	139.25	-1.99756E-001	-1.99344E-001	4.17902E-004	...........
	557	139.5	-1.99621E-001	-1.99180E-001	4.21402E-004	...........
	558	139.75	-1.99484E-001	-1.99033E-001	4.19319E-004	...........
	559	140	-1.99347E-001	-1.99188E-001	4.14527E-004	...........
	560	140.25	-1.99240E-001	-1.99509E-001	4.15777E-004	...........
	561	140.5	-1.99203E-001	-1.99263E-001	4.18027E-004	...........
	562	140.75	-1.99228E-001	-1.98962E-001	4.21319E-004	...........
	563	141	-1.99242E-001	-1.98859E-001	4.17777E-004	...........
	564	141.25	-1.99176E-001	-1.98543E-001	4.20444E-004	...........
	565	141.5	-1.99027E-001	-1.98382E-001	4.19111E-004	...........
	566	141.75	-1.98827E-001	-1.98123E-001	4.13152E-004	...........
	567	142	-1.98609E-001	-1.98044E-001	4.11819E-004	...........
	568	142.25	-1.98396E-001	-1.97889E-001	4.13402E-004	...........
	569	142.5	-1.98207E-001	-1.97721E-001	4.15569E-004	...........
	570	142.75	-1.98042E-001	-1.97606E-001	4.16361E-004	...........
	571	143	-1.97892E-001	-1.97493E-001	4.14319E-004	...........
	572	143.25	-1.97752E-001	-1.97356E-001	4.12986E-004	...........
	573	143.5	-1.97621E-001	-1.97246E-001	4.22444E-004	...........
	574	143.75	-1.97495E-001	-1.97106E-001	4.18069E-004	...........
	575	144	-1.97370E-001	-1.96944E-001	4.19027E-004	...........
	576	144.25	-1.97242E-001	-1.96862E-001	4.20236E-004	...........
	577	144.5	-1.97112E-001	-1.96728E-001	4.15027E-004	...........
	578	144.75	-1.96983E-001	-1.96604E-001	4.21860E-004	...........
	579	145	-1.96859E-001	-1.96472E-001	4.20277E-004	...........
	580	145.25	-1.96735E-001	-1.96338E-001	4.20735E-004	...........
	581	145.5	-1.96610E-001	-1.96216E-001	4.24235E-004	...........
	582	145.75	-1.96482E-001	-1.96087E-001	4.25402E-004	...........
	583	146	-1.96353E-001	-1.95965E-001	4.22569E-004	...........
	584	146.25	-1.96226E-001	-1.95850E-001	4.17777E-004	...........
	585	146.5	-1.96100E-001	-1.95728E-001	4.21069E-004	...........
	586	146.75	-1.95978E-001	-1.95609E-001	4.27152E-004	...........
	587	147	-1.95857E-001	-1.95486E-001	4.22194E-004	...........
	588	147.25	-1.95737E-001	-1.95365E-001	4.21860E-004	...........
	589	147.5	-1.95617E-001	-1.95246E-001	4.20236E-004	...........
	590	147.75	-1.95496E-001	-1.95128E-001	4.25985E-004	...........
	591	148	-1.95376E-001	-1.95014E-001	4.17069E-004	...........
	592	148.25	-1.95257E-001	-1.94888E-001	4.18361E-004	...........
	593	148.5	-1.95138E-001	-1.94765E-001	4.26360E-004	...........
	594	148.75	-1.95018E-001	-1.94639E-001	4.22569E-004	...........
	595	149	-1.94897E-001	-1.94522E-001	4.24360E-004	...........
	596	149.25	-1.94775E-001	-1.94403E-001	4.25777E-004	...........
	597	149.5	-1.94652E-001	-1.94277E-001	4.19902E-004	...........
	598	149.75	-1.94531E-001	-1.94156E-001	4.19235E-004	...........
EOC	QUANT	-0.1945309	Open Circuit (V)
PSTATMODEL	IQUANT	4	Pstat Model
PSTATSECTION	LABEL	REF600-19025	Pstat Section
PSTATSERIALNO	LABEL	19025	Pstat Serial Number
CTRLMODE	IQUANT	1	Control Mode
IESTAB	IQUANT	0	I/E Stability
CASPEED	IQUANT	1	Control Amp Speed
CONVENTION	IQUANT	1	Current Convention
ICHRANGE	IQUANT	2	Ich Range
ICHRANGEMODE	TOGGLE	F	Ich Auto Range
ICHOFFSETENABLE	TOGGLE	T	Ich Offset Enable
ICHOFFSET	QUANT	0	Ich Offset (V)
ICHFILTER	IQUANT	3	Ich Filter
VCHRANGE	IQUANT	2	Vch Range
VCHRANGEMODE	TOGGLE	F	Vch Auto Range
VCHOFFSETENABLE	TOGGLE	T	Vch Offset Enable
VCHOFFSET	QUANT	0	Vch Offset (V)
VCHFILTER	IQUANT	3	Vch Filter
ACHRANGE	IQUANT	2	Ach Range
ACHOFFSETENABLE	TOGGLE	F	Ach Offset Enable
ACHOFFSET	QUANT	0	Ach Offset (V)
ACHFILTER	IQUANT	3	Ach Filter
IERANGELOWERLIMIT	IQUANT	1	I/E Range Lower Limit
IERANGEMODE	TOGGLE	F	I/E AutoRange
IERANGE	IQUANT	3	I/E Range
POSFEEDENABLE	TOGGLE	F	Positive Feedback IR Comp
POSFEEDRESISTANCE	QUANT	0	Positive Feedback Resistance (ohm)
ACHSELECT	IQUANT	0	Ach Select
CABLEID	IQUANT	13	Cable ID
DCCALDATE	LABEL	2017-4-11	DC Calibration Date
ACCALDATE	LABEL	2017-4-11	AC Calibration Date
THERMOSELECT	IQUANT	1	Thermo Select
FRAMEWORKVERSION	QUANT	6.04	Framework Version
INSTRUMENTVERSION	LABEL	3.04	Instrument Version
ZCURVE	TABLE
	Pt	Time	Freq	Zreal	Zimag	Zsig	Zmod	Zphz	Idc	Vdc	IERange
	#	s	Hz	ohm	ohm	V	ohm	ï¿½	A	V	#
	0	3	100078.1	9186.469	-1913.047	1	9383.547	-11.7635	-1.776289E-007	-0.1931956	8
	1	5	63140.62	9408.058	-2561.581	1	9750.55	-15.23101	4.75546E-007	-0.1937479	8
	2	7	39890.62	9865.21	-3511.317	1	10471.47	-19.59213	-6.236423E-007	-0.1928682	7
	3	10	25171.88	10420.14	-5009.927	1	11561.95	-25.67792	-6.138421E-008	-0.1937053	7
	4	12	15890.62	11321.03	-7090.245	1	13358.04	-32.05849	-8.035074E-007	-0.1927454	7
	5	15	10078.13	12663.53	-10035.92	1	16158.12	-38.39703	2.449117E-007	-0.1940482	7
	6	17	6328.125	14793.4	-14100.76	1	20437.13	-43.6268	4.968281E-007	-0.194311	7
	7	20	3984.375	18073.3	-19539.22	1	26616.26	-47.23194	-9.503047E-008	-0.1918754	6
	8	22	2527.573	22656.56	-26615.44	1	34952.84	-49.5937	-1.629249E-008	-0.1927062	6
	9	24	1577.524	29506.91	-36031.24	1	46571.54	-50.68507	-1.273283E-007	-0.1915986	6
	10	27	998.264	38120.61	-47916.12	1	61230.19	-51.49531	1.223199E-007	-0.195069	6
	11	29	627.7902	50296.97	-63104.38	1	80696.64	-51.44361	1.157703E-007	-0.1947729	6
	12	32	397.9953	66306.13	-82226.02	1	105629.6	-51.11769	-1.037132E-009	-0.1935676	6
	13	35	252.4038	87536.92	-105915.9	1	137407.7	-50.42709	-5.2018E-010	-0.1935831	5
	14	38	158.3615	114960.7	-137143.5	1	178953.4	-50.02853	-5.120965E-010	-0.1935944	5
	15	40	100.4464	149099.9	-175949	1	230627	-49.72191	-5.994331E-010	-0.1935775	5
	16	43	63.3446	192575.6	-225123.3	1	296253	-49.45555	-4.547906E-010	-0.193593	5
	17	46	38.42213	255450.3	-296406.3	1	391294.7	-49.24443	-4.632076E-010	-0.1935813	5
	18	49	24.93351	320922.8	-380564.9	1	497816.3	-49.85973	-5.120839E-010	-0.1935853	5
	19	52	15.625	416008.3	-490876.1	1	643445.6	-49.71935	-6.276771E-010	-0.193588	5
	20	54	9.93114	526996.4	-650777.1	1	837398.4	-50.9996	-5.04923E-010	-0.1935859	5
	21	57	6.317385	678626.1	-842933.1	1	1082160	-51.16326	-3.387914E-010	-0.1935512	4
	22	61	3.945707	883392.1	-1119158	1	1425797	-51.71469	-3.635189E-010	-0.1935796	4
	23	67	2.504006	1148740	-1473135	1	1868081	-52.05316	-3.27165E-010	-0.193583	4
	24	74	1.584686	1498500	-1936693	1	2448731	-52.26939	-3.179023E-010	-0.1935913	4
	25	84	0.999041	1963713	-2572297	1	3236183	-52.64159	-3.366633E-010	-0.1935889	4
	26	91	0.633446	2553690	-3386511	1	4241437	-52.98089	-3.431314E-010	-0.1942999	4
	27	103	0.400641	3345625	-4502980	1	5609816	-53.38838	-3.281151E-010	-0.1943026	4
	28	120	0.2520161	4430878	-6034174	1	7486250	-53.71026	-3.200841E-010	-0.1942964	4