EXPLAIN
TAG	EISPOT
TITLE	LABEL	Potentiostatic EIS	Test &Identifier
DATE	LABEL	2017-4-15	Date
TIME	LABEL	22:52:32	Time
NOTES	NOTES	2	&Notes...
	
	
PSTAT	PSTAT	REF600-19025	Potentiostat
VDC	POTEN	0.00000E+000	T	DC &Voltage (V)
FREQINIT	QUANT	1.00000E+005	Initial Fre&q. (Hz)
FREQFINAL	QUANT	1.00000E-001	Final Fre&q. (Hz)
PTSPERDEC	QUANT	5.00000E+000	Points/&decade
VAC	QUANT	2.00000E+001	AC &Voltage (mV rms)
AREA	QUANT	1.00000E+000	&Area (cm^2)
CONDIT	TWOPARAM	F	1.50000E+001	0.00000E+000	Conditionin&g	Time(s)	E(V)
DELAY	TWOPARAM	T	3.00000E+002	0.00000E+000	Init. De&lay	Time(s)	Stab.(mV/s)
SPEED	SELECTOR	2	&Optimize for:
ZGUESS	QUANT	1.00000E+008	E&stimated Z (ohms)
OCVCURVE	TABLE	565
	Pt	T	Vf	Vm	Ach	Over
	#	s	V vs. Ref.	V	V	bits
	0	0.25	-3.23267E-001	-3.23267E-001	3.95444E-004	...........
	1	0.5	-3.23271E-001	-3.23509E-001	3.97277E-004	...........
	2	0.75	-3.23301E-001	-3.23789E-001	3.91569E-004	...........
	3	1	-3.23387E-001	-3.24052E-001	3.96611E-004	...........
	4	1.25	-3.23547E-001	-3.24291E-001	3.91236E-004	...........
	5	1.5	-3.23766E-001	-3.24548E-001	3.90611E-004	...........
	6	1.75	-3.24016E-001	-3.24895E-001	3.92236E-004	...........
	7	2	-3.24283E-001	-3.25215E-001	3.92569E-004	...........
	8	2.25	-3.24568E-001	-3.25535E-001	3.92736E-004	...........
	9	2.5	-3.24870E-001	-3.25777E-001	3.98902E-004	...........
	10	2.75	-3.25178E-001	-3.26119E-001	3.94819E-004	...........
	11	3	-3.25481E-001	-3.26303E-001	3.98778E-004	...........
	12	3.25	-3.25770E-001	-3.26515E-001	3.92861E-004	...........
	13	3.5	-3.26031E-001	-3.26398E-001	3.98361E-004	...........
	14	3.75	-3.26241E-001	-3.26711E-001	3.91778E-004	...........
	15	4	-3.26398E-001	-3.26733E-001	3.91528E-004	...........
	16	4.25	-3.26520E-001	-3.26789E-001	3.95653E-004	...........
	17	4.5	-3.26625E-001	-3.26851E-001	3.91819E-004	...........
	18	4.75	-3.26714E-001	-3.26951E-001	3.95653E-004	...........
	19	5	-3.26791E-001	-3.27079E-001	3.89694E-004	...........
	20	5.25	-3.26873E-001	-3.27275E-001	3.91694E-004	...........
	21	5.5	-3.26977E-001	-3.27604E-001	3.90194E-004	...........
	22	5.75	-3.27136E-001	-3.28437E-001	3.92694E-004	...........
	23	6	-3.27405E-001	-3.29371E-001	3.89194E-004	...........
	24	6.25	-3.27823E-001	-3.28679E-001	3.91653E-004	...........
	25	6.5	-3.28280E-001	-3.27903E-001	3.95028E-004	...........
	26	6.75	-3.28539E-001	-3.27603E-001	4.01277E-004	...........
	27	7	-3.28474E-001	-3.27769E-001	3.99027E-004	...........
	28	7.25	-3.28203E-001	-3.27694E-001	4.00152E-004	...........
	29	7.5	-3.27925E-001	-3.27244E-001	3.98569E-004	...........
	30	7.75	-3.27710E-001	-3.26828E-001	3.98444E-004	...........
	31	8	-3.27500E-001	-3.26723E-001	3.96944E-004	...........
	32	8.25	-3.27256E-001	-3.26716E-001	3.99027E-004	...........
	33	8.5	-3.27012E-001	-3.26519E-001	3.97319E-004	...........
	34	8.75	-3.26818E-001	-3.26535E-001	3.95819E-004	...........
	35	9	-3.26677E-001	-3.26242E-001	3.91778E-004	...........
	36	9.25	-3.26555E-001	-3.25840E-001	3.92194E-004	...........
	37	9.5	-3.26408E-001	-3.25971E-001	3.92653E-004	...........
	38	9.75	-3.26237E-001	-3.26193E-001	3.93153E-004	...........
	39	10	-3.26100E-001	-3.25798E-001	3.98819E-004	...........
	40	10.25	-3.26013E-001	-3.25344E-001	3.93986E-004	...........
	41	10.5	-3.25900E-001	-3.24718E-001	3.89986E-004	...........
	42	10.75	-3.25662E-001	-3.24060E-001	3.95569E-004	...........
	43	11	-3.25289E-001	-3.24731E-001	3.91486E-004	...........
	44	11.25	-3.24892E-001	-3.24233E-001	3.97069E-004	...........
	45	11.5	-3.24575E-001	-3.23025E-001	3.93861E-004	...........
	46	11.75	-3.24250E-001	-3.21138E-001	3.90944E-004	...........
	47	12	-3.23698E-001	-3.21121E-001	3.93903E-004	...........
	48	12.25	-3.22909E-001	-3.22351E-001	3.90944E-004	...........
	49	12.5	-3.22210E-001	-3.22713E-001	3.99444E-004	...........
	50	12.75	-3.21933E-001	-3.22690E-001	3.95111E-004	...........
	51	13	-3.22061E-001	-3.22563E-001	3.99236E-004	...........
	52	13.25	-3.22324E-001	-3.22354E-001	3.90819E-004	...........
	53	13.5	-3.22487E-001	-3.21949E-001	3.93194E-004	...........
	54	13.75	-3.22466E-001	-3.21588E-001	3.96444E-004	...........
	55	14	-3.22281E-001	-3.21330E-001	3.99027E-004	...........
	56	14.25	-3.21996E-001	-3.21048E-001	3.92819E-004	...........
	57	14.5	-3.21678E-001	-3.20764E-001	4.00569E-004	...........
	58	14.75	-3.21367E-001	-3.20499E-001	3.95486E-004	...........
	59	15	-3.21072E-001	-3.20166E-001	3.97111E-004	...........
	60	15.25	-3.20776E-001	-3.19445E-001	3.92361E-004	...........
	61	15.5	-3.20442E-001	-3.19096E-001	3.97861E-004	...........
	62	15.75	-3.20047E-001	-3.18792E-001	3.97569E-004	...........
	63	16	-3.19618E-001	-3.18539E-001	3.94653E-004	...........
	64	16.25	-3.19211E-001	-3.18235E-001	4.06444E-004	...........
	65	16.5	-3.18856E-001	-3.17900E-001	4.04277E-004	...........
	66	16.75	-3.18538E-001	-3.17569E-001	3.98527E-004	...........
	67	17	-3.18232E-001	-3.17267E-001	3.97194E-004	...........
	68	17.25	-3.17922E-001	-3.17014E-001	3.93236E-004	...........
	69	17.5	-3.17615E-001	-3.16801E-001	3.89028E-004	...........
	70	17.75	-3.17325E-001	-3.16548E-001	4.00277E-004	...........
	71	18	-3.17056E-001	-3.16240E-001	4.05319E-004	...........
	72	18.25	-3.16799E-001	-3.15980E-001	4.00027E-004	...........
	73	18.5	-3.16539E-001	-3.15689E-001	3.97236E-004	...........
	74	18.75	-3.16270E-001	-3.15394E-001	3.99986E-004	...........
	75	19	-3.15991E-001	-3.15056E-001	4.03861E-004	...........
	76	19.25	-3.15697E-001	-3.14510E-001	4.05652E-004	...........
	77	19.5	-3.15377E-001	-3.14470E-001	4.07277E-004	...........
	78	19.75	-3.15039E-001	-3.14066E-001	4.01902E-004	...........
	79	20	-3.14701E-001	-3.13307E-001	3.96986E-004	...........
	80	20.25	-3.14354E-001	-3.13446E-001	3.99027E-004	...........
	81	20.5	-3.13993E-001	-3.13123E-001	4.00444E-004	...........
	82	20.75	-3.13648E-001	-3.12350E-001	4.01986E-004	...........
	83	21	-3.13320E-001	-3.12445E-001	4.02361E-004	...........
	84	21.25	-3.12995E-001	-3.12424E-001	4.00486E-004	...........
	85	21.5	-3.12711E-001	-3.12392E-001	4.05152E-004	...........
	86	21.75	-3.12513E-001	-3.11887E-001	4.02611E-004	...........
	87	22	-3.12365E-001	-3.11675E-001	4.01652E-004	...........
	88	22.25	-3.12181E-001	-3.10763E-001	4.04527E-004	...........
	89	22.5	-3.11890E-001	-3.10468E-001	3.96819E-004	...........
	90	22.75	-3.11483E-001	-3.10155E-001	4.01861E-004	...........
	91	23	-3.11016E-001	-3.09561E-001	3.93861E-004	...........
	92	23.25	-3.10558E-001	-3.09714E-001	4.03361E-004	...........
	93	23.5	-3.10163E-001	-3.09525E-001	4.02736E-004	...........
	94	23.75	-3.09873E-001	-3.09750E-001	4.00652E-004	...........
	95	24	-3.09699E-001	-3.09173E-001	3.99944E-004	...........
	96	24.25	-3.09578E-001	-3.08468E-001	4.01861E-004	...........
	97	24.5	-3.09390E-001	-3.08084E-001	4.03527E-004	...........
	98	24.75	-3.09063E-001	-3.07645E-001	3.94944E-004	...........
	99	25	-3.08640E-001	-3.07877E-001	4.02069E-004	...........
	100	25.25	-3.08226E-001	-3.07005E-001	3.94069E-004	...........
	101	25.5	-3.07867E-001	-3.06576E-001	4.01236E-004	...........
	102	25.75	-3.07510E-001	-3.06190E-001	3.97527E-004	...........
	103	26	-3.07107E-001	-3.05836E-001	3.99361E-004	...........
	104	26.25	-3.06686E-001	-3.05880E-001	3.95278E-004	...........
	105	26.5	-3.06301E-001	-3.05053E-001	3.92611E-004	...........
	106	26.75	-3.05943E-001	-3.04145E-001	4.00111E-004	...........
	107	27	-3.05529E-001	-3.03869E-001	3.92486E-004	...........
	108	27.25	-3.05018E-001	-3.03566E-001	3.88028E-004	...........
	109	27.5	-3.04487E-001	-3.03763E-001	3.94528E-004	...........
	110	27.75	-3.04053E-001	-3.03196E-001	4.02027E-004	...........
	111	28	-3.03753E-001	-3.03199E-001	4.03194E-004	...........
	112	28.25	-3.03537E-001	-3.03109E-001	3.96111E-004	...........
	113	28.5	-3.03371E-001	-3.03391E-001	3.95903E-004	...........
	114	28.75	-3.03267E-001	-3.03209E-001	4.01861E-004	...........
	115	29	-3.03243E-001	-3.03792E-001	4.04027E-004	...........
	116	29.25	-3.03288E-001	-3.03147E-001	4.03236E-004	...........
	117	29.5	-3.03350E-001	-3.03031E-001	4.05069E-004	...........
	118	29.75	-3.03350E-001	-3.02969E-001	4.00402E-004	...........
	119	30	-3.03261E-001	-3.02980E-001	4.01944E-004	...........
	120	30.25	-3.03142E-001	-3.03173E-001	3.96986E-004	...........
	121	30.5	-3.03071E-001	-3.03435E-001	3.97069E-004	...........
	122	30.75	-3.03096E-001	-3.03764E-001	3.98652E-004	...........
	123	31	-3.03229E-001	-3.04083E-001	4.01861E-004	...........
	124	31.25	-3.03456E-001	-3.04519E-001	4.00236E-004	...........
	125	31.5	-3.03754E-001	-3.04988E-001	3.97611E-004	...........
	126	31.75	-3.04120E-001	-3.05961E-001	3.98569E-004	...........
	127	32	-3.04564E-001	-3.05872E-001	3.94194E-004	...........
	128	32.25	-3.05058E-001	-3.06175E-001	3.91903E-004	...........
	129	32.5	-3.05519E-001	-3.06616E-001	3.94778E-004	...........
	130	32.75	-3.05905E-001	-3.07034E-001	3.99736E-004	...........
	131	33	-3.06251E-001	-3.07293E-001	3.99527E-004	...........
	132	33.25	-3.06604E-001	-3.08059E-001	3.95444E-004	...........
	133	33.5	-3.07014E-001	-3.09546E-001	3.99569E-004	...........
	134	33.75	-3.07534E-001	-3.08482E-001	4.02569E-004	...........
	135	34	-3.08096E-001	-3.08559E-001	3.98611E-004	...........
	136	34.25	-3.08507E-001	-3.08829E-001	4.00652E-004	...........
	137	34.5	-3.08700E-001	-3.09281E-001	3.90486E-004	...........
	138	34.75	-3.08808E-001	-3.09692E-001	3.98652E-004	...........
	139	35	-3.08981E-001	-3.09954E-001	3.99902E-004	...........
	140	35.25	-3.09255E-001	-3.10232E-001	3.99527E-004	...........
	141	35.5	-3.09582E-001	-3.10656E-001	3.98236E-004	...........
	142	35.75	-3.09919E-001	-3.10917E-001	4.00944E-004	...........
	143	36	-3.10252E-001	-3.11225E-001	4.01194E-004	...........
	144	36.25	-3.10579E-001	-3.11579E-001	3.97653E-004	...........
	145	36.5	-3.10902E-001	-3.11928E-001	3.95486E-004	...........
	146	36.75	-3.11238E-001	-3.12888E-001	3.99486E-004	...........
	147	37	-3.11629E-001	-3.13105E-001	4.05111E-004	...........
	148	37.25	-3.12092E-001	-3.13412E-001	3.97319E-004	...........
	149	37.5	-3.12577E-001	-3.13834E-001	4.00777E-004	...........
	150	37.75	-3.13023E-001	-3.14093E-001	4.00069E-004	...........
	151	38	-3.13419E-001	-3.14759E-001	4.00861E-004	...........
	152	38.25	-3.13795E-001	-3.14810E-001	4.02736E-004	...........
	153	38.5	-3.14167E-001	-3.15084E-001	3.94861E-004	...........
	154	38.75	-3.14514E-001	-3.15403E-001	3.98694E-004	...........
	155	39	-3.14817E-001	-3.15546E-001	4.01652E-004	...........
	156	39.25	-3.15094E-001	-3.16262E-001	3.94444E-004	...........
	157	39.5	-3.15377E-001	-3.16162E-001	3.95111E-004	...........
	158	39.75	-3.15675E-001	-3.16348E-001	3.99986E-004	...........
	159	40	-3.15951E-001	-3.16473E-001	3.96652E-004	...........
	160	40.25	-3.16168E-001	-3.16630E-001	3.98277E-004	...........
	161	40.5	-3.16335E-001	-3.16726E-001	3.95986E-004	...........
	162	40.75	-3.16483E-001	-3.17294E-001	4.00486E-004	...........
	163	41	-3.16648E-001	-3.17051E-001	3.98444E-004	...........
	164	41.25	-3.16828E-001	-3.17030E-001	4.00319E-004	...........
	165	41.5	-3.16977E-001	-3.17168E-001	3.96611E-004	...........
	166	41.75	-3.17062E-001	-3.17140E-001	3.99027E-004	...........
	167	42	-3.17100E-001	-3.17019E-001	4.02611E-004	...........
	168	42.25	-3.17123E-001	-3.17694E-001	4.08986E-004	...........
	169	42.5	-3.17168E-001	-3.17344E-001	4.01694E-004	...........
	170	42.75	-3.17252E-001	-3.17263E-001	4.00986E-004	...........
	171	43	-3.17333E-001	-3.17540E-001	4.02402E-004	...........
	172	43.25	-3.17381E-001	-3.17560E-001	3.98486E-004	...........
	173	43.5	-3.17423E-001	-3.17697E-001	3.97319E-004	...........
	174	43.75	-3.17485E-001	-3.17658E-001	3.95528E-004	...........
	175	44	-3.17557E-001	-3.17605E-001	3.98069E-004	...........
	176	44.25	-3.17612E-001	-3.17635E-001	3.91486E-004	...........
	177	44.5	-3.17646E-001	-3.18166E-001	3.89611E-004	...........
	178	44.75	-3.17694E-001	-3.17755E-001	3.96986E-004	...........
	179	45	-3.17768E-001	-3.17757E-001	3.95653E-004	...........
	180	45.25	-3.17823E-001	-3.17751E-001	3.94444E-004	...........
	181	45.5	-3.17827E-001	-3.17742E-001	3.99902E-004	...........
	182	45.75	-3.17800E-001	-3.17798E-001	3.96986E-004	...........
	183	46	-3.17777E-001	-3.17873E-001	4.01111E-004	...........
	184	46.25	-3.17782E-001	-3.18080E-001	3.98402E-004	...........
	185	46.5	-3.17831E-001	-3.18309E-001	3.98569E-004	...........
	186	46.75	-3.17944E-001	-3.18991E-001	3.93236E-004	...........
	187	47	-3.18140E-001	-3.18764E-001	3.99194E-004	...........
	188	47.25	-3.18401E-001	-3.19376E-001	4.05819E-004	...........
	189	47.5	-3.18689E-001	-3.19743E-001	3.96319E-004	...........
	190	47.75	-3.18993E-001	-3.20060E-001	3.93611E-004	...........
	191	48	-3.19325E-001	-3.20408E-001	4.00277E-004	...........
	192	48.25	-3.19673E-001	-3.20588E-001	3.99486E-004	...........
	193	48.5	-3.20007E-001	-3.20726E-001	4.00319E-004	...........
	194	48.75	-3.20297E-001	-3.20920E-001	4.01611E-004	...........
	195	49	-3.20530E-001	-3.20902E-001	3.98944E-004	...........
	196	49.25	-3.20708E-001	-3.21072E-001	3.96736E-004	...........
	197	49.5	-3.20839E-001	-3.20977E-001	3.94569E-004	...........
	198	49.75	-3.20924E-001	-3.20767E-001	3.95653E-004	...........
	199	50	-3.20975E-001	-3.21969E-001	3.98111E-004	...........
	200	50.25	-3.21066E-001	-3.22103E-001	3.97111E-004	...........
	201	50.5	-3.21289E-001	-3.22401E-001	4.00736E-004	...........
	202	50.75	-3.21628E-001	-3.22384E-001	4.02527E-004	...........
	203	51	-3.21971E-001	-3.22554E-001	3.94569E-004	...........
	204	51.25	-3.22235E-001	-3.22665E-001	3.95278E-004	...........
	205	51.5	-3.22412E-001	-3.22614E-001	3.94194E-004	...........
	206	51.75	-3.22525E-001	-3.22599E-001	3.93861E-004	...........
	207	52	-3.22590E-001	-3.22686E-001	3.99527E-004	...........
	208	52.25	-3.22623E-001	-3.22758E-001	4.00361E-004	...........
	209	52.5	-3.22651E-001	-3.22801E-001	3.96819E-004	...........
	210	52.75	-3.22691E-001	-3.22845E-001	3.99277E-004	...........
	211	53	-3.22743E-001	-3.23068E-001	4.02986E-004	...........
	212	53.25	-3.22811E-001	-3.23061E-001	3.98277E-004	...........
	213	53.5	-3.22897E-001	-3.23231E-001	3.98819E-004	...........
	214	53.75	-3.22994E-001	-3.23287E-001	4.02152E-004	...........
	215	54	-3.23096E-001	-3.23461E-001	4.00486E-004	...........
	216	54.25	-3.23204E-001	-3.23679E-001	3.97611E-004	...........
	217	54.5	-3.23327E-001	-3.23714E-001	3.94486E-004	...........
	218	54.75	-3.23460E-001	-3.23708E-001	4.02527E-004	...........
	219	55	-3.23581E-001	-3.23780E-001	3.96444E-004	...........
	220	55.25	-3.23670E-001	-3.23823E-001	3.95444E-004	...........
	221	55.5	-3.23730E-001	-3.23872E-001	3.95403E-004	...........
	222	55.75	-3.23777E-001	-3.23875E-001	3.97277E-004	...........
	223	56	-3.23830E-001	-3.24562E-001	3.99569E-004	...........
	224	56.25	-3.23963E-001	-3.26384E-001	4.00069E-004	...........
	225	56.5	-3.24312E-001	-3.26300E-001	3.94194E-004	...........
	226	56.75	-3.24871E-001	-3.24552E-001	3.91569E-004	...........
	227	57	-3.25380E-001	-3.26567E-001	3.91944E-004	...........
	228	57.25	-3.25681E-001	-3.27567E-001	4.00361E-004	...........
	229	57.5	-3.25970E-001	-3.27493E-001	3.97444E-004	...........
	230	57.75	-3.26440E-001	-3.28222E-001	3.96902E-004	...........
	231	58	-3.27036E-001	-3.29340E-001	3.99611E-004	...........
	232	58.25	-3.27636E-001	-3.27647E-001	3.94069E-004	...........
	233	58.5	-3.28054E-001	-3.25722E-001	3.97569E-004	...........
	234	58.75	-3.28004E-001	-3.25184E-001	3.97486E-004	...........
	235	59	-3.27392E-001	-3.25021E-001	3.93278E-004	...........
	236	59.25	-3.26502E-001	-3.25070E-001	3.94944E-004	...........
	237	59.5	-3.25734E-001	-3.25229E-001	4.09069E-004	...........
	238	59.75	-3.25284E-001	-3.25116E-001	3.99736E-004	...........
	239	60	-3.25108E-001	-3.24655E-001	3.93778E-004	...........
	240	60.25	-3.25040E-001	-3.24711E-001	3.93403E-004	...........
	241	60.5	-3.24967E-001	-3.25194E-001	3.96111E-004	...........
	242	60.75	-3.24914E-001	-3.25496E-001	4.00111E-004	...........
	243	61	-3.24962E-001	-3.25364E-001	3.98986E-004	...........
	244	61.25	-3.25107E-001	-3.25468E-001	4.01944E-004	...........
	245	61.5	-3.25262E-001	-3.25248E-001	3.96444E-004	...........
	246	61.75	-3.25345E-001	-3.24901E-001	3.99986E-004	...........
	247	62	-3.25320E-001	-3.24811E-001	3.92486E-004	...........
	248	62.25	-3.25195E-001	-3.24616E-001	3.95986E-004	...........
	249	62.5	-3.25016E-001	-3.24537E-001	4.00611E-004	...........
	250	62.75	-3.24839E-001	-3.24706E-001	3.96278E-004	...........
	251	63	-3.24715E-001	-3.24883E-001	3.98486E-004	...........
	252	63.25	-3.24678E-001	-3.24998E-001	3.96319E-004	...........
	253	63.5	-3.24730E-001	-3.25056E-001	3.91486E-004	...........
	254	63.75	-3.24830E-001	-3.24949E-001	4.01444E-004	...........
	255	64	-3.24922E-001	-3.24951E-001	4.01361E-004	...........
	256	64.25	-3.24973E-001	-3.25078E-001	3.98778E-004	...........
	257	64.5	-3.24994E-001	-3.25058E-001	4.03069E-004	...........
	258	64.75	-3.25007E-001	-3.24926E-001	3.98819E-004	...........
	259	65	-3.25017E-001	-3.25059E-001	4.03027E-004	...........
	260	65.25	-3.25018E-001	-3.25069E-001	4.02486E-004	...........
	261	65.5	-3.25022E-001	-3.25129E-001	4.02444E-004	...........
	262	65.75	-3.25039E-001	-3.25017E-001	4.01694E-004	...........
	263	66	-3.25057E-001	-3.24996E-001	4.06361E-004	...........
	264	66.25	-3.25063E-001	-3.25241E-001	4.01736E-004	...........
	265	66.5	-3.25070E-001	-3.25180E-001	3.96444E-004	...........
	266	66.75	-3.25084E-001	-3.24530E-001	3.99611E-004	...........
	267	67	-3.25039E-001	-3.23547E-001	4.01736E-004	...........
	268	67.25	-3.24824E-001	-3.23273E-001	3.99944E-004	...........
	269	67.5	-3.24423E-001	-3.23766E-001	4.01694E-004	...........
	270	67.75	-3.24013E-001	-3.24657E-001	4.03444E-004	...........
	271	68	-3.23836E-001	-3.24726E-001	3.96402E-004	...........
	272	68.25	-3.23924E-001	-3.22539E-001	3.99694E-004	...........
	273	68.5	-3.23936E-001	-3.19239E-001	4.02652E-004	...........
	274	68.75	-3.23421E-001	-3.20879E-001	3.94694E-004	...........
	275	69	-3.22434E-001	-3.22656E-001	3.99402E-004	...........
	276	69.25	-3.21645E-001	-3.23817E-001	4.03111E-004	...........
	277	69.5	-3.21622E-001	-3.24259E-001	3.99444E-004	...........
	278	69.75	-3.22287E-001	-3.24697E-001	4.01027E-004	...........
	279	70	-3.23198E-001	-3.25363E-001	3.95486E-004	...........
	280	70.25	-3.24014E-001	-3.25082E-001	3.95944E-004	...........
	281	70.5	-3.24600E-001	-3.24700E-001	3.96902E-004	...........
	282	70.75	-3.24917E-001	-3.25044E-001	4.02361E-004	...........
	283	71	-3.25009E-001	-3.24988E-001	3.97527E-004	...........
	284	71.25	-3.24998E-001	-3.24951E-001	3.98694E-004	...........
	285	71.5	-3.24979E-001	-3.25032E-001	3.94319E-004	...........
	286	71.75	-3.24974E-001	-3.24903E-001	3.94028E-004	...........
	287	72	-3.24973E-001	-3.24901E-001	3.95194E-004	...........
	288	72.25	-3.24961E-001	-3.24843E-001	3.93528E-004	...........
	289	72.5	-3.24930E-001	-3.24649E-001	3.95944E-004	...........
	290	72.75	-3.24872E-001	-3.24388E-001	3.90944E-004	...........
	291	73	-3.24780E-001	-3.24709E-001	3.95361E-004	...........
	292	73.25	-3.24678E-001	-3.24498E-001	3.98194E-004	...........
	293	73.5	-3.24602E-001	-3.24414E-001	3.98778E-004	...........
	294	73.75	-3.24549E-001	-3.24234E-001	4.01069E-004	...........
	295	74	-3.24482E-001	-3.24074E-001	3.98944E-004	...........
	296	74.25	-3.24380E-001	-3.23907E-001	4.01527E-004	...........
	297	74.5	-3.24245E-001	-3.23784E-001	3.91694E-004	...........
	298	74.75	-3.24093E-001	-3.23580E-001	3.95736E-004	...........
	299	75	-3.23934E-001	-3.23461E-001	3.97319E-004	...........
	300	75.25	-3.23775E-001	-3.23327E-001	3.99777E-004	...........
	301	75.5	-3.23621E-001	-3.23151E-001	4.00361E-004	...........
	302	75.75	-3.23470E-001	-3.22978E-001	3.97277E-004	...........
	303	76	-3.23317E-001	-3.22817E-001	4.00236E-004	...........
	304	76.25	-3.23159E-001	-3.22630E-001	4.00236E-004	...........
	305	76.5	-3.22994E-001	-3.22480E-001	3.93319E-004	...........
	306	76.75	-3.22825E-001	-3.22351E-001	3.94403E-004	...........
	307	77	-3.22661E-001	-3.22208E-001	3.99236E-004	...........
	308	77.25	-3.22506E-001	-3.22063E-001	3.95694E-004	...........
	309	77.5	-3.22358E-001	-3.21888E-001	3.95361E-004	...........
	310	77.75	-3.22212E-001	-3.21738E-001	3.99111E-004	...........
	311	78	-3.22061E-001	-3.21534E-001	3.96694E-004	...........
	312	78.25	-3.21902E-001	-3.21418E-001	3.97069E-004	...........
	313	78.5	-3.21741E-001	-3.21317E-001	3.94611E-004	...........
	314	78.75	-3.21585E-001	-3.21178E-001	3.98111E-004	...........
	315	79	-3.21443E-001	-3.21042E-001	3.97111E-004	...........
	316	79.25	-3.21311E-001	-3.20841E-001	3.97361E-004	...........
	317	79.5	-3.21174E-001	-3.20641E-001	3.94528E-004	...........
	318	79.75	-3.21022E-001	-3.20524E-001	3.97277E-004	...........
	319	80	-3.20857E-001	-3.20357E-001	3.92194E-004	...........
	320	80.25	-3.20690E-001	-3.20235E-001	3.95028E-004	...........
	321	80.5	-3.20531E-001	-3.20051E-001	3.92986E-004	...........
	322	80.75	-3.20377E-001	-3.19880E-001	4.02902E-004	...........
	323	81	-3.20223E-001	-3.19739E-001	3.98861E-004	...........
	324	81.25	-3.20064E-001	-3.19520E-001	3.99027E-004	...........
	325	81.5	-3.19899E-001	-3.19364E-001	4.02194E-004	...........
	326	81.75	-3.19727E-001	-3.19158E-001	3.95361E-004	...........
	327	82	-3.19549E-001	-3.19003E-001	3.96111E-004	...........
	328	82.25	-3.19368E-001	-3.18827E-001	3.96902E-004	...........
	329	82.5	-3.19189E-001	-3.18652E-001	3.97486E-004	...........
	330	82.75	-3.19015E-001	-3.18572E-001	3.98277E-004	...........
	331	83	-3.18850E-001	-3.18416E-001	3.92361E-004	...........
	332	83.25	-3.18700E-001	-3.18303E-001	3.95028E-004	...........
	333	83.5	-3.18565E-001	-3.18225E-001	3.92694E-004	...........
	334	83.75	-3.18440E-001	-3.18067E-001	3.98902E-004	...........
	335	84	-3.18322E-001	-3.17950E-001	3.97236E-004	...........
	336	84.25	-3.18205E-001	-3.17794E-001	3.95444E-004	...........
	337	84.5	-3.18080E-001	-3.17649E-001	3.96069E-004	...........
	338	84.75	-3.17947E-001	-3.17500E-001	3.97527E-004	...........
	339	85	-3.17807E-001	-3.17372E-001	3.95486E-004	...........
	340	85.25	-3.17664E-001	-3.17260E-001	3.98027E-004	...........
	341	85.5	-3.17524E-001	-3.17142E-001	3.97277E-004	...........
	342	85.75	-3.17393E-001	-3.17039E-001	4.01652E-004	...........
	343	86	-3.17270E-001	-3.16894E-001	3.92736E-004	...........
	344	86.25	-3.17154E-001	-3.16873E-001	3.92611E-004	...........
	345	86.5	-3.17044E-001	-3.16762E-001	4.00111E-004	...........
	346	86.75	-3.16944E-001	-3.16631E-001	3.97444E-004	...........
	347	87	-3.16849E-001	-3.16494E-001	3.98277E-004	...........
	348	87.25	-3.16748E-001	-3.16380E-001	3.97986E-004	...........
	349	87.5	-3.16634E-001	-3.16258E-001	3.99153E-004	...........
	350	87.75	-3.16514E-001	-3.16154E-001	4.03152E-004	...........
	351	88	-3.16390E-001	-3.15921E-001	4.05819E-004	...........
	352	88.25	-3.16260E-001	-3.15772E-001	4.02111E-004	...........
	353	88.5	-3.16114E-001	-3.15592E-001	3.95819E-004	...........
	354	88.75	-3.15953E-001	-3.15439E-001	3.95986E-004	...........
	355	89	-3.15785E-001	-3.15271E-001	3.94944E-004	...........
	356	89.25	-3.15617E-001	-3.15155E-001	3.93194E-004	...........
	357	89.5	-3.15456E-001	-3.15070E-001	3.88236E-004	...........
	358	89.75	-3.15311E-001	-3.14995E-001	3.95778E-004	...........
	359	90	-3.15189E-001	-3.14938E-001	3.96902E-004	...........
	360	90.25	-3.15089E-001	-3.14871E-001	4.00569E-004	...........
	361	90.5	-3.15008E-001	-3.14762E-001	3.99319E-004	...........
	362	90.75	-3.14933E-001	-3.14619E-001	3.92278E-004	...........
	363	91	-3.14849E-001	-3.14515E-001	4.00986E-004	...........
	364	91.25	-3.14750E-001	-3.14353E-001	3.90278E-004	...........
	365	91.5	-3.14635E-001	-3.14204E-001	3.92903E-004	...........
	366	91.75	-3.14505E-001	-3.14071E-001	4.00944E-004	...........
	367	92	-3.14367E-001	-3.13953E-001	3.98694E-004	...........
	368	92.25	-3.14227E-001	-3.13837E-001	3.95986E-004	...........
	369	92.5	-3.14093E-001	-3.13740E-001	3.96819E-004	...........
	370	92.75	-3.13971E-001	-3.13737E-001	3.93028E-004	...........
	371	93	-3.13866E-001	-3.13637E-001	3.98944E-004	...........
	372	93.25	-3.13780E-001	-3.13486E-001	3.94486E-004	...........
	373	93.5	-3.13701E-001	-3.13402E-001	3.97027E-004	...........
	374	93.75	-3.13615E-001	-3.13423E-001	3.99944E-004	...........
	375	94	-3.13530E-001	-3.13354E-001	4.06069E-004	...........
	376	94.25	-3.13456E-001	-3.13191E-001	4.01652E-004	...........
	377	94.5	-3.13386E-001	-3.12968E-001	3.97694E-004	...........
	378	94.75	-3.13293E-001	-3.12800E-001	4.04402E-004	...........
	379	95	-3.13164E-001	-3.12721E-001	3.98319E-004	...........
	380	95.25	-3.13011E-001	-3.12592E-001	4.00194E-004	...........
	381	95.5	-3.12862E-001	-3.12507E-001	4.04277E-004	...........
	382	95.75	-3.12729E-001	-3.12414E-001	3.99069E-004	...........
	383	96	-3.12616E-001	-3.12369E-001	3.98902E-004	...........
	384	96.25	-3.12520E-001	-3.12290E-001	3.94278E-004	...........
	385	96.5	-3.12438E-001	-3.12226E-001	3.98944E-004	...........
	386	96.75	-3.12366E-001	-3.12180E-001	3.95694E-004	...........
	387	97	-3.12299E-001	-3.12082E-001	3.99694E-004	...........
	388	97.25	-3.12234E-001	-3.12035E-001	3.96486E-004	...........
	389	97.5	-3.12170E-001	-3.12037E-001	3.99486E-004	...........
	390	97.75	-3.12110E-001	-3.11960E-001	4.03361E-004	...........
	391	98	-3.12059E-001	-3.11927E-001	3.95611E-004	...........
	392	98.25	-3.12014E-001	-3.11822E-001	3.97486E-004	...........
	393	98.5	-3.11964E-001	-3.11736E-001	3.95611E-004	...........
	394	98.75	-3.11903E-001	-3.11690E-001	3.95653E-004	...........
	395	99	-3.11832E-001	-3.11572E-001	3.99069E-004	...........
	396	99.25	-3.11755E-001	-3.11509E-001	3.99652E-004	...........
	397	99.5	-3.11675E-001	-3.11410E-001	3.98986E-004	...........
	398	99.75	-3.11592E-001	-3.11333E-001	3.92403E-004	...........
	399	100	-3.11508E-001	-3.11274E-001	3.93944E-004	...........
	400	100.25	-3.11426E-001	-3.11195E-001	3.98611E-004	...........
	401	100.5	-3.11347E-001	-3.11098E-001	3.91694E-004	...........
	402	100.75	-3.11270E-001	-3.10977E-001	3.96986E-004	...........
	403	101	-3.11186E-001	-3.10865E-001	3.94861E-004	...........
	404	101.25	-3.11092E-001	-3.10784E-001	3.96652E-004	...........
	405	101.5	-3.10990E-001	-3.10684E-001	3.94986E-004	...........
	406	101.75	-3.10889E-001	-3.10644E-001	3.98444E-004	...........
	407	102	-3.10797E-001	-3.10658E-001	4.04694E-004	...........
	408	102.25	-3.10725E-001	-3.10657E-001	3.98194E-004	...........
	409	102.5	-3.10676E-001	-3.10436E-001	4.00402E-004	...........
	410	102.75	-3.10635E-001	-3.10527E-001	3.97694E-004	...........
	411	103	-3.10589E-001	-3.10496E-001	3.97903E-004	...........
	412	103.25	-3.10544E-001	-3.10450E-001	3.93236E-004	...........
	413	103.5	-3.10510E-001	-3.10411E-001	3.97069E-004	...........
	414	103.75	-3.10481E-001	-3.10371E-001	3.91611E-004	...........
	415	104	-3.10450E-001	-3.10353E-001	3.96986E-004	...........
	416	104.25	-3.10418E-001	-3.10387E-001	3.92819E-004	...........
	417	104.5	-3.10393E-001	-3.10474E-001	3.89569E-004	...........
	418	104.75	-3.10390E-001	-3.10520E-001	3.90861E-004	...........
	419	105	-3.10413E-001	-3.10543E-001	3.91278E-004	...........
	420	105.25	-3.10453E-001	-3.10516E-001	3.89694E-004	...........
	421	105.5	-3.10491E-001	-3.10500E-001	3.90778E-004	...........
	422	105.75	-3.10512E-001	-3.10503E-001	3.93236E-004	...........
	423	106	-3.10517E-001	-3.10523E-001	3.87778E-004	...........
	424	106.25	-3.10515E-001	-3.10526E-001	3.94819E-004	...........
	425	106.5	-3.10514E-001	-3.10528E-001	3.96652E-004	...........
	426	106.75	-3.10517E-001	-3.10499E-001	3.98778E-004	...........
	427	107	-3.10518E-001	-3.10472E-001	3.97319E-004	...........
	428	107.25	-3.10513E-001	-3.10473E-001	3.96486E-004	...........
	429	107.5	-3.10501E-001	-3.10469E-001	3.96611E-004	...........
	430	107.75	-3.10487E-001	-3.10474E-001	3.97319E-004	...........
	431	108	-3.10478E-001	-3.10482E-001	3.93736E-004	...........
	432	108.25	-3.10475E-001	-3.10507E-001	3.94611E-004	...........
	433	108.5	-3.10479E-001	-3.10540E-001	3.94319E-004	...........
	434	108.75	-3.10490E-001	-3.10547E-001	3.93069E-004	...........
	435	109	-3.10508E-001	-3.10553E-001	4.02486E-004	...........
	436	109.25	-3.10526E-001	-3.10548E-001	3.97903E-004	...........
	437	109.5	-3.10540E-001	-3.10580E-001	3.96986E-004	...........
	438	109.75	-3.10551E-001	-3.10602E-001	3.98027E-004	...........
	439	110	-3.10563E-001	-3.10611E-001	3.97736E-004	...........
	440	110.25	-3.10578E-001	-3.10628E-001	3.97444E-004	...........
	441	110.5	-3.10595E-001	-3.10641E-001	3.98736E-004	...........
	442	110.75	-3.10611E-001	-3.10688E-001	3.98402E-004	...........
	443	111	-3.10630E-001	-3.10710E-001	3.98069E-004	...........
	444	111.25	-3.10653E-001	-3.10737E-001	3.98194E-004	...........
	445	111.5	-3.10680E-001	-3.10807E-001	3.96069E-004	...........
	446	111.75	-3.10714E-001	-3.10958E-001	3.97277E-004	...........
	447	112	-3.10767E-001	-3.11144E-001	3.95903E-004	...........
	448	112.25	-3.10853E-001	-3.11388E-001	4.01902E-004	...........
	449	112.5	-3.10986E-001	-3.11648E-001	3.98569E-004	...........
	450	112.75	-3.11162E-001	-3.11744E-001	3.96236E-004	...........
	451	113	-3.11360E-001	-3.11775E-001	4.01486E-004	...........
	452	113.25	-3.11537E-001	-3.11590E-001	4.00819E-004	...........
	453	113.5	-3.11645E-001	-3.11429E-001	3.95403E-004	...........
	454	113.75	-3.11661E-001	-3.11422E-001	3.95653E-004	...........
	455	114	-3.11603E-001	-3.11391E-001	3.97986E-004	...........
	456	114.25	-3.11518E-001	-3.11320E-001	3.93444E-004	...........
	457	114.5	-3.11443E-001	-3.11344E-001	3.91903E-004	...........
	458	114.75	-3.11392E-001	-3.11452E-001	3.95944E-004	...........
	459	115	-3.11375E-001	-3.11659E-001	3.95944E-004	...........
	460	115.25	-3.11410E-001	-3.11900E-001	3.95736E-004	...........
	461	115.5	-3.11511E-001	-3.12140E-001	3.95361E-004	...........
	462	115.75	-3.11680E-001	-3.12632E-001	3.96028E-004	...........
	463	116	-3.11931E-001	-3.13781E-001	3.93903E-004	...........
	464	116.25	-3.12325E-001	-3.14868E-001	3.96861E-004	...........
	465	116.5	-3.12900E-001	-3.14001E-001	3.95611E-004	...........
	466	116.75	-3.13491E-001	-3.12301E-001	3.97027E-004	...........
	467	117	-3.13750E-001	-3.11772E-001	3.98111E-004	...........
	468	117.25	-3.13482E-001	-3.11565E-001	3.97403E-004	...........
	469	117.5	-3.12853E-001	-3.11141E-001	3.99652E-004	...........
	470	117.75	-3.12178E-001	-3.10882E-001	3.97277E-004	...........
	471	118	-3.11637E-001	-3.10916E-001	3.95736E-004	...........
	472	118.25	-3.11254E-001	-3.10397E-001	3.93903E-004	...........
	473	118.5	-3.10956E-001	-3.09074E-001	3.96111E-004	...........
	474	118.75	-3.10557E-001	-3.06472E-001	4.01319E-004	...........
	475	119	-3.09834E-001	-3.06640E-001	4.01777E-004	...........
	476	119.25	-3.08822E-001	-3.08244E-001	3.97444E-004	...........
	477	119.5	-3.07962E-001	-3.09350E-001	4.01736E-004	...........
	478	119.75	-3.07722E-001	-3.09948E-001	4.05069E-004	...........
	479	120	-3.08137E-001	-3.10226E-001	4.00444E-004	...........
	480	120.25	-3.08879E-001	-3.10982E-001	3.94236E-004	...........
	481	120.5	-3.09620E-001	-3.10767E-001	3.92486E-004	...........
	482	120.75	-3.10197E-001	-3.10504E-001	3.96069E-004	...........
	483	121	-3.10539E-001	-3.10432E-001	3.95236E-004	...........
	484	121.25	-3.10649E-001	-3.10468E-001	4.03527E-004	...........
	485	121.5	-3.10611E-001	-3.10407E-001	3.95486E-004	...........
	486	121.75	-3.10532E-001	-3.10488E-001	3.94861E-004	...........
	487	122	-3.10475E-001	-3.10408E-001	3.97319E-004	...........
	488	122.25	-3.10446E-001	-3.10355E-001	3.94111E-004	...........
	489	122.5	-3.10428E-001	-3.10349E-001	3.91694E-004	...........
	490	122.75	-3.10409E-001	-3.10479E-001	3.93736E-004	...........
	491	123	-3.10397E-001	-3.10495E-001	3.95153E-004	...........
	492	123.25	-3.10406E-001	-3.10379E-001	3.98486E-004	...........
	493	123.5	-3.10423E-001	-3.10329E-001	3.98652E-004	...........
	494	123.75	-3.10421E-001	-3.10286E-001	3.99277E-004	...........
	495	124	-3.10393E-001	-3.10298E-001	3.95194E-004	...........
	496	124.25	-3.10352E-001	-3.10255E-001	4.02652E-004	...........
	497	124.5	-3.10315E-001	-3.10238E-001	4.01736E-004	...........
	498	124.75	-3.10286E-001	-3.10221E-001	4.00319E-004	...........
	499	125	-3.10262E-001	-3.10193E-001	4.00902E-004	...........
	500	125.25	-3.10239E-001	-3.10130E-001	4.02236E-004	...........
	501	125.5	-3.10214E-001	-3.10114E-001	4.04652E-004	...........
	502	125.75	-3.10184E-001	-3.10149E-001	3.98944E-004	...........
	503	126	-3.10157E-001	-3.10116E-001	4.00527E-004	...........
	504	126.25	-3.10138E-001	-3.10097E-001	3.94486E-004	...........
	505	126.5	-3.10126E-001	-3.10077E-001	4.00319E-004	...........
	506	126.75	-3.10113E-001	-3.09999E-001	4.01027E-004	...........
	507	127	-3.10091E-001	-3.09972E-001	4.02486E-004	...........
	508	127.25	-3.10058E-001	-3.09929E-001	4.06069E-004	...........
	509	127.5	-3.10019E-001	-3.09933E-001	4.01902E-004	...........
	510	127.75	-3.09981E-001	-3.09919E-001	4.05152E-004	...........
	511	128	-3.09952E-001	-3.09942E-001	4.01194E-004	...........
	512	128.25	-3.09937E-001	-3.09947E-001	4.06361E-004	...........
	513	128.5	-3.09932E-001	-3.09899E-001	3.96944E-004	...........
	514	128.75	-3.09930E-001	-3.09865E-001	3.92111E-004	...........
	515	129	-3.09920E-001	-3.09837E-001	3.94611E-004	...........
	516	129.25	-3.09900E-001	-3.09815E-001	4.00319E-004	...........
	517	129.5	-3.09873E-001	-3.09803E-001	4.03361E-004	...........
	518	129.75	-3.09846E-001	-3.09778E-001	4.01319E-004	...........
	519	130	-3.09821E-001	-3.09729E-001	4.01861E-004	...........
	520	130.25	-3.09796E-001	-3.09667E-001	4.00986E-004	...........
	521	130.5	-3.09765E-001	-3.09633E-001	3.98194E-004	...........
	522	130.75	-3.09726E-001	-3.09609E-001	3.96486E-004	...........
	523	131	-3.09685E-001	-3.09624E-001	4.02652E-004	...........
	524	131.25	-3.09654E-001	-3.09779E-001	4.01361E-004	...........
	525	131.5	-3.09654E-001	-3.10050E-001	3.98611E-004	...........
	526	131.75	-3.09704E-001	-3.09897E-001	4.07277E-004	...........
	527	132	-3.09791E-001	-3.09933E-001	4.06527E-004	...........
	528	132.25	-3.09878E-001	-3.10219E-001	4.06027E-004	...........
	529	132.5	-3.09948E-001	-3.09988E-001	4.06069E-004	...........
	530	132.75	-3.10001E-001	-3.09835E-001	4.06652E-004	...........
	531	133	-3.10019E-001	-3.09969E-001	4.07236E-004	...........
	532	133.25	-3.09994E-001	-3.09811E-001	4.07944E-004	...........
	533	133.5	-3.09947E-001	-3.09790E-001	3.98569E-004	...........
	534	133.75	-3.09893E-001	-3.09580E-001	4.10902E-004	...........
	535	134	-3.09826E-001	-3.09564E-001	4.00319E-004	...........
	536	134.25	-3.09744E-001	-3.09562E-001	4.03777E-004	...........
	537	134.5	-3.09665E-001	-3.09693E-001	4.02736E-004	...........
	538	134.75	-3.09620E-001	-3.09768E-001	3.98778E-004	...........
	539	135	-3.09626E-001	-3.09841E-001	4.00277E-004	...........
	540	135.25	-3.09677E-001	-3.09914E-001	3.99277E-004	...........
	541	135.5	-3.09751E-001	-3.10013E-001	4.03444E-004	...........
	542	135.75	-3.09832E-001	-3.10099E-001	3.97653E-004	...........
	543	136	-3.09921E-001	-3.10397E-001	4.00027E-004	...........
	544	136.25	-3.10024E-001	-3.10257E-001	4.05736E-004	...........
	545	136.5	-3.10134E-001	-3.10274E-001	3.99944E-004	...........
	546	136.75	-3.10223E-001	-3.10328E-001	4.01694E-004	...........
	547	137	-3.10276E-001	-3.10430E-001	3.99611E-004	...........
	548	137.25	-3.10313E-001	-3.10504E-001	4.01819E-004	...........
	549	137.5	-3.10357E-001	-3.10517E-001	4.01902E-004	...........
	550	137.75	-3.10414E-001	-3.10628E-001	4.04694E-004	...........
	551	138	-3.10477E-001	-3.10677E-001	4.04611E-004	...........
	552	138.25	-3.10541E-001	-3.10702E-001	4.02694E-004	...........
	553	138.5	-3.10600E-001	-3.10641E-001	4.04902E-004	...........
	554	138.75	-3.10644E-001	-3.10685E-001	4.04069E-004	...........
	555	139	-3.10667E-001	-3.10684E-001	3.99777E-004	...........
	556	139.25	-3.10674E-001	-3.10653E-001	3.97653E-004	...........
	557	139.5	-3.10674E-001	-3.10625E-001	4.00194E-004	...........
	558	139.75	-3.10668E-001	-3.10635E-001	4.11861E-004	...........
	559	140	-3.10654E-001	-3.10567E-001	4.07652E-004	...........
	560	140.25	-3.10636E-001	-3.10572E-001	4.02152E-004	...........
	561	140.5	-3.10612E-001	-3.10454E-001	4.08277E-004	...........
	562	140.75	-3.10579E-001	-3.10402E-001	4.06402E-004	...........
	563	141	-3.10533E-001	-3.10378E-001	4.07986E-004	...........
	564	141.25	-3.10480E-001	-3.10364E-001	4.04111E-004	...........
EOC	QUANT	-0.3104797	Open Circuit (V)
PSTATMODEL	IQUANT	4	Pstat Model
PSTATSECTION	LABEL	REF600-19025	Pstat Section
PSTATSERIALNO	LABEL	19025	Pstat Serial Number
CTRLMODE	IQUANT	1	Control Mode
IESTAB	IQUANT	0	I/E Stability
CASPEED	IQUANT	1	Control Amp Speed
CONVENTION	IQUANT	1	Current Convention
ICHRANGE	IQUANT	2	Ich Range
ICHRANGEMODE	TOGGLE	F	Ich Auto Range
ICHOFFSETENABLE	TOGGLE	T	Ich Offset Enable
ICHOFFSET	QUANT	0	Ich Offset (V)
ICHFILTER	IQUANT	3	Ich Filter
VCHRANGE	IQUANT	2	Vch Range
VCHRANGEMODE	TOGGLE	F	Vch Auto Range
VCHOFFSETENABLE	TOGGLE	T	Vch Offset Enable
VCHOFFSET	QUANT	0	Vch Offset (V)
VCHFILTER	IQUANT	3	Vch Filter
ACHRANGE	IQUANT	2	Ach Range
ACHOFFSETENABLE	TOGGLE	F	Ach Offset Enable
ACHOFFSET	QUANT	0	Ach Offset (V)
ACHFILTER	IQUANT	3	Ach Filter
IERANGELOWERLIMIT	IQUANT	1	I/E Range Lower Limit
IERANGEMODE	TOGGLE	F	I/E AutoRange
IERANGE	IQUANT	3	I/E Range
POSFEEDENABLE	TOGGLE	F	Positive Feedback IR Comp
POSFEEDRESISTANCE	QUANT	0	Positive Feedback Resistance (ohm)
ACHSELECT	IQUANT	0	Ach Select
CABLEID	IQUANT	13	Cable ID
DCCALDATE	LABEL	2017-4-11	DC Calibration Date
ACCALDATE	LABEL	2017-4-11	AC Calibration Date
THERMOSELECT	IQUANT	1	Thermo Select
FRAMEWORKVERSION	QUANT	6.04	Framework Version
INSTRUMENTVERSION	LABEL	3.04	Instrument Version
ZCURVE	TABLE
	Pt	Time	Freq	Zreal	Zimag	Zsig	Zmod	Zphz	Idc	Vdc	IERange
	#	s	Hz	ohm	ohm	V	ohm	ï¿½	A	V	#
	0	5	100078.1	18163.28	-42789.47	1	46484.87	-66.99974	1.926431E-006	-0.3092	8
	1	9	63140.62	26004.46	-60163.28	1	65542.75	-66.62448	-7.101539E-007	-0.3099082	8
	2	11	39890.62	39272.79	-84224.6	1	92930.8	-65.001	1.325319E-006	-0.3113086	7
	3	16	25171.88	58655.14	-116438	1	130377.3	-63.26351	1.431579E-006	-0.3111323	7
	4	21	15890.62	85266.93	-157276.5	1	178903.2	-61.53582	-7.68568E-007	-0.3093158	7
	5	26	10078.13	122738.9	-203821.3	1	237924.3	-58.94411	1.433047E-006	-0.3111269	7
	6	33	6328.125	178042.8	-266063.7	1	320139.2	-56.2106	7.834607E-007	-0.3095979	7
	7	39	3984.375	247642.8	-343466	1	423433.4	-54.20798	1.713522E-007	-0.312645	6
	8	42	2527.573	337712.3	-437893	1	552991.8	-52.35983	1.085679E-008	-0.3113645	6
	9	47	1577.524	431311.1	-550133.1	1	699053.4	-51.90312	-1.289161E-007	-0.3064947	6
	10	50	998.264	458386.8	-544367.7	1	711656.3	-49.90082	1.271203E-007	-0.3124262	6
	11	54	627.7902	565236.4	-723528.3	1	918142.3	-52.00225	-1.882627E-007	-0.3060135	6
	12	57	397.9953	752575.6	-871488.6	1	1151461	-49.18769	-1.012726E-010	-0.3094554	5
	13	61	252.4038	964944	-1112551	1	1472714	-49.06407	-1.148661E-010	-0.3094487	5
	14	64	158.3615	1244420	-1425678	1	1892390	-48.88354	-1.702469E-010	-0.3094373	5
	15	67	100.4464	1600640	-1813332	1	2418723	-48.56495	-1.858978E-010	-0.3094448	5
	16	69	63.3446	2070242	-2308709	1	3100974	-48.11711	-1.866279E-010	-0.3094494	5
	17	72	38.42213	2765824	-2966040	1	4055512	-47.00055	-1.581329E-010	-0.3094437	4
	18	75	24.93351	3484969	-3713623	1	5092741	-46.81932	-1.694877E-010	-0.30944	4
	19	78	15.625	4532077	-4632092	1	6480432	-45.62528	-1.316767E-010	-0.3094451	4
	20	80	9.93114	5687009	-5808603	1	8129080	-45.60602	-1.565855E-010	-0.3094348	4
	21	83	6.317385	7238347	-7139029	1	1.016658E+007	-44.60421	-1.672678E-010	-0.3094426	4
	22	87	3.945707	9301166	-8840664	1	1.283234E+007	-43.54595	-1.693524E-010	-0.309416	3
	23	93	2.504006	1.141682E+007	-1.021805E+007	1	1.532163E+007	-41.82852	-1.825782E-010	-0.3094233	3
	24	100	1.584686	1.381657E+007	-1.182715E+007	1	1.818733E+007	-40.56394	-1.925441E-010	-0.3093789	3
	25	110	0.999041	1.592668E+007	-1.227786E+007	1	2.010982E+007	-37.6286	-1.853916E-010	-0.3094306	3