EXPLAIN
TAG	EISPOT
TITLE	LABEL	Potentiostatic EIS	Test &Identifier
DATE	LABEL	2017-4-18	Date
TIME	LABEL	15:20:58	Time
NOTES	NOTES	2	&Notes...
	
	
PSTAT	PSTAT	REF600-19025	Potentiostat
VDC	POTEN	0.00000E+000	T	DC &Voltage (V)
FREQINIT	QUANT	1.00000E+005	Initial Fre&q. (Hz)
FREQFINAL	QUANT	1.00000E-001	Final Fre&q. (Hz)
PTSPERDEC	QUANT	5.00000E+000	Points/&decade
VAC	QUANT	2.00000E+001	AC &Voltage (mV rms)
AREA	QUANT	1.00000E+000	&Area (cm^2)
CONDIT	TWOPARAM	F	1.50000E+001	0.00000E+000	Conditionin&g	Time(s)	E(V)
DELAY	TWOPARAM	T	3.00000E+002	0.00000E+000	Init. De&lay	Time(s)	Stab.(mV/s)
SPEED	SELECTOR	2	&Optimize for:
ZGUESS	QUANT	1.00000E+008	E&stimated Z (ohms)
OCVCURVE	TABLE	749
	Pt	T	Vf	Vm	Ach	Over
	#	s	V vs. Ref.	V	V	bits
	0	0.25	-2.67953E-001	-2.67953E-001	3.58570E-004	...........
	1	0.5	-2.67916E-001	-2.65980E-001	3.63236E-004	...........
	2	0.75	-2.67674E-001	-2.63558E-001	3.67736E-004	...........
	3	1	-2.66953E-001	-2.61199E-001	3.69570E-004	...........
	4	1.25	-2.65593E-001	-2.58884E-001	3.68111E-004	...........
	5	1.5	-2.63691E-001	-2.56904E-001	3.59945E-004	...........
	6	1.75	-2.61514E-001	-2.55176E-001	3.68320E-004	...........
	7	2	-2.59336E-001	-2.54268E-001	3.66403E-004	...........
	8	2.25	-2.57358E-001	-2.52492E-001	3.69195E-004	...........
	9	2.5	-2.55643E-001	-2.51134E-001	3.73361E-004	...........
	10	2.75	-2.54102E-001	-2.49053E-001	3.64903E-004	...........
	11	3	-2.52602E-001	-2.48384E-001	3.67528E-004	...........
	12	3.25	-2.51113E-001	-2.47387E-001	3.70320E-004	...........
	13	3.5	-2.49749E-001	-2.47623E-001	3.64820E-004	...........
	14	3.75	-2.48625E-001	-2.44916E-001	3.69070E-004	...........
	15	4	-2.47636E-001	-2.42835E-001	3.69111E-004	...........
	16	4.25	-2.46565E-001	-2.45669E-001	3.74278E-004	...........
	17	4.5	-2.45513E-001	-2.44163E-001	3.76319E-004	...........
	18	4.75	-2.44753E-001	-2.41347E-001	3.71445E-004	...........
	19	5	-2.44165E-001	-2.41908E-001	3.66778E-004	...........
	20	5.25	-2.43456E-001	-2.41837E-001	3.65695E-004	...........
	21	5.5	-2.42660E-001	-2.39868E-001	3.64903E-004	...........
	22	5.75	-2.41973E-001	-2.42820E-001	3.61736E-004	...........
	23	6	-2.41537E-001	-2.41255E-001	3.59111E-004	...........
	24	6.25	-2.41406E-001	-2.41190E-001	3.61070E-004	...........
	25	6.5	-2.41433E-001	-2.41144E-001	3.63070E-004	...........
	26	6.75	-2.41401E-001	-2.40393E-001	3.64611E-004	...........
	27	7	-2.41221E-001	-2.39811E-001	3.61861E-004	...........
	28	7.25	-2.40884E-001	-2.38876E-001	3.58611E-004	...........
	29	7.5	-2.40387E-001	-2.38430E-001	3.55570E-004	...........
	30	7.75	-2.39773E-001	-2.37892E-001	3.63695E-004	...........
	31	8	-2.39122E-001	-2.37157E-001	3.65361E-004	...........
	32	8.25	-2.38483E-001	-2.36530E-001	3.64778E-004	...........
	33	8.5	-2.37849E-001	-2.35530E-001	3.60486E-004	...........
	34	8.75	-2.37170E-001	-2.34304E-001	3.64611E-004	...........
	35	9	-2.36390E-001	-2.33542E-001	3.59403E-004	...........
	36	9.25	-2.35499E-001	-2.32486E-001	3.65278E-004	...........
	37	9.5	-2.34534E-001	-2.31194E-001	3.66861E-004	...........
	38	9.75	-2.33534E-001	-2.30861E-001	3.67195E-004	...........
	39	10	-2.32563E-001	-2.30868E-001	3.70028E-004	...........
	40	10.25	-2.31826E-001	-2.34861E-001	3.68236E-004	...........
	41	10.5	-2.31739E-001	-2.37820E-001	3.69486E-004	...........
	42	10.75	-2.32729E-001	-2.42290E-001	3.70528E-004	...........
	43	11	-2.34848E-001	-2.42489E-001	3.71111E-004	...........
	44	11.25	-2.37553E-001	-2.42217E-001	3.63820E-004	...........
	45	11.5	-2.40006E-001	-2.44021E-001	3.69445E-004	...........
	46	11.75	-2.41722E-001	-2.43896E-001	3.69028E-004	...........
	47	12	-2.42771E-001	-2.43457E-001	3.70403E-004	...........
	48	12.25	-2.43350E-001	-2.42879E-001	3.69153E-004	...........
	49	12.5	-2.43527E-001	-2.42507E-001	3.69403E-004	...........
	50	12.75	-2.43372E-001	-2.42149E-001	3.69611E-004	...........
	51	13	-2.43019E-001	-2.41646E-001	3.69653E-004	...........
	52	13.25	-2.42587E-001	-2.41075E-001	3.66861E-004	...........
	53	13.5	-2.42108E-001	-2.39584E-001	3.65736E-004	...........
	54	13.75	-2.41561E-001	-2.40987E-001	3.70611E-004	...........
	55	14	-2.41043E-001	-2.41316E-001	3.60611E-004	...........
	56	14.25	-2.40745E-001	-2.40090E-001	3.61445E-004	...........
	57	14.5	-2.40615E-001	-2.37532E-001	3.66945E-004	...........
	58	14.75	-2.40352E-001	-2.40702E-001	3.64486E-004	...........
	59	15	-2.39907E-001	-2.38847E-001	3.72361E-004	...........
	60	15.25	-2.39518E-001	-2.37929E-001	3.69945E-004	...........
	61	15.5	-2.39209E-001	-2.37792E-001	3.62986E-004	...........
	62	15.75	-2.38806E-001	-2.36859E-001	3.63403E-004	...........
	63	16	-2.38270E-001	-2.36522E-001	3.65445E-004	...........
	64	16.25	-2.37678E-001	-2.36046E-001	3.63736E-004	...........
	65	16.5	-2.37101E-001	-2.35649E-001	3.66153E-004	...........
	66	16.75	-2.36571E-001	-2.34874E-001	3.66570E-004	...........
	67	17	-2.36054E-001	-2.33796E-001	3.61195E-004	...........
	68	17.25	-2.35478E-001	-2.33475E-001	3.62278E-004	...........
	69	17.5	-2.34819E-001	-2.32787E-001	3.63778E-004	...........
	70	17.75	-2.34134E-001	-2.32286E-001	3.62445E-004	...........
	71	18	-2.33477E-001	-2.31355E-001	3.66945E-004	...........
	72	18.25	-2.32840E-001	-2.30883E-001	3.68195E-004	...........
	73	18.5	-2.32196E-001	-2.30170E-001	3.76736E-004	...........
	74	18.75	-2.31542E-001	-2.29583E-001	3.65986E-004	...........
	75	19	-2.30919E-001	-2.30422E-001	3.71778E-004	...........
	76	19.25	-2.30505E-001	-2.33903E-001	3.68695E-004	...........
	77	19.5	-2.30664E-001	-2.36290E-001	3.69236E-004	...........
	78	19.75	-2.31670E-001	-2.36617E-001	3.69611E-004	...........
	79	20	-2.33305E-001	-2.37620E-001	3.63570E-004	...........
	80	20.25	-2.34955E-001	-2.35370E-001	3.68320E-004	...........
	81	20.5	-2.36083E-001	-2.37482E-001	3.68153E-004	...........
	82	20.75	-2.36720E-001	-2.43519E-001	3.71778E-004	...........
	83	21	-2.37444E-001	-2.38014E-001	3.67320E-004	...........
	84	21.25	-2.38436E-001	-2.37583E-001	3.74528E-004	...........
	85	21.5	-2.39026E-001	-2.35123E-001	3.73528E-004	...........
	86	21.75	-2.38683E-001	-2.36746E-001	3.71695E-004	...........
	87	22	-2.37717E-001	-2.34891E-001	3.74486E-004	...........
	88	22.25	-2.36692E-001	-2.33447E-001	3.66528E-004	...........
	89	22.5	-2.35818E-001	-2.35294E-001	3.66403E-004	...........
	90	22.75	-2.35136E-001	-2.34822E-001	3.61653E-004	...........
	91	23	-2.34730E-001	-2.33046E-001	3.65820E-004	...........
	92	23.25	-2.34473E-001	-2.32535E-001	3.64445E-004	...........
	93	23.5	-2.34102E-001	-2.33351E-001	3.62028E-004	...........
	94	23.75	-2.33626E-001	-2.33156E-001	3.63361E-004	...........
	95	24	-2.33216E-001	-2.30332E-001	3.67695E-004	...........
	96	24.25	-2.32796E-001	-2.30519E-001	3.68986E-004	...........
	97	24.5	-2.32189E-001	-2.31096E-001	3.65903E-004	...........
	98	24.75	-2.31506E-001	-2.30142E-001	3.68403E-004	...........
	99	25	-2.30963E-001	-2.29513E-001	3.68778E-004	...........
	100	25.25	-2.30547E-001	-2.29137E-001	3.68445E-004	...........
	101	25.5	-2.30124E-001	-2.28521E-001	3.72236E-004	...........
	102	25.75	-2.29622E-001	-2.26924E-001	3.68986E-004	...........
	103	26	-2.28974E-001	-2.25226E-001	3.61903E-004	...........
	104	26.25	-2.28134E-001	-2.27288E-001	3.67361E-004	...........
	105	26.5	-2.27270E-001	-2.25394E-001	3.63445E-004	...........
	106	26.75	-2.26578E-001	-2.23442E-001	3.70945E-004	...........
	107	27	-2.25927E-001	-2.22619E-001	3.74361E-004	...........
	108	27.25	-2.25099E-001	-2.23853E-001	3.70861E-004	...........
	109	27.5	-2.24214E-001	-2.22087E-001	3.65653E-004	...........
	110	27.75	-2.23465E-001	-2.19934E-001	3.60111E-004	...........
	111	28	-2.22723E-001	-2.19581E-001	3.60070E-004	...........
	112	28.25	-2.21816E-001	-2.20267E-001	3.70070E-004	...........
	113	28.5	-2.20844E-001	-2.16287E-001	3.67361E-004	...........
	114	28.75	-2.19886E-001	-2.17183E-001	3.66861E-004	...........
	115	29	-2.18810E-001	-2.12864E-001	3.69278E-004	...........
	116	29.25	-2.17489E-001	-2.13240E-001	3.70153E-004	...........
	117	29.5	-2.16047E-001	-2.16019E-001	3.69195E-004	...........
	118	29.75	-2.14849E-001	-2.09964E-001	3.72945E-004	...........
	119	30	-2.14083E-001	-2.16761E-001	3.72403E-004	...........
	120	30.25	-2.13721E-001	-2.14124E-001	3.75570E-004	...........
	121	30.5	-2.13830E-001	-2.16911E-001	3.77028E-004	...........
	122	30.75	-2.14392E-001	-2.16407E-001	3.75611E-004	...........
	123	31	-2.15134E-001	-2.15423E-001	3.70736E-004	...........
	124	31.25	-2.15692E-001	-2.14546E-001	3.67820E-004	...........
	125	31.5	-2.15790E-001	-2.13796E-001	3.69528E-004	...........
	126	31.75	-2.15387E-001	-2.12074E-001	3.69820E-004	...........
	127	32	-2.14623E-001	-2.12197E-001	3.70736E-004	...........
	128	32.25	-2.13699E-001	-2.11199E-001	3.70111E-004	...........
	129	32.5	-2.12793E-001	-2.10027E-001	3.72403E-004	...........
	130	32.75	-2.11980E-001	-2.10930E-001	3.69528E-004	...........
	131	33	-2.11316E-001	-2.10984E-001	3.66820E-004	...........
	132	33.25	-2.10888E-001	-2.09543E-001	3.74153E-004	...........
	133	33.5	-2.10600E-001	-2.08048E-001	3.69070E-004	...........
	134	33.75	-2.10166E-001	-2.07350E-001	3.65945E-004	...........
	135	34	-2.09417E-001	-2.06060E-001	3.69070E-004	...........
	136	34.25	-2.08422E-001	-2.04884E-001	3.66153E-004	...........
	137	34.5	-2.07332E-001	-2.04687E-001	3.64486E-004	...........
	138	34.75	-2.06293E-001	-2.04464E-001	3.65986E-004	...........
	139	35	-2.05418E-001	-2.02714E-001	3.62445E-004	...........
	140	35.25	-2.04671E-001	-2.01938E-001	3.64403E-004	...........
	141	35.5	-2.03915E-001	-2.02132E-001	3.69195E-004	...........
	142	35.75	-2.03170E-001	-2.02870E-001	3.65028E-004	...........
	143	36	-2.02645E-001	-2.02596E-001	3.69111E-004	...........
	144	36.25	-2.02415E-001	-2.00756E-001	3.68361E-004	...........
	145	36.5	-2.02261E-001	-2.00948E-001	3.66236E-004	...........
	146	36.75	-2.01941E-001	-2.00571E-001	3.68528E-004	...........
	147	37	-2.01467E-001	-2.00038E-001	3.62820E-004	...........
	148	37.25	-2.00981E-001	-1.99834E-001	3.66736E-004	...........
	149	37.5	-2.00536E-001	-1.98799E-001	3.63070E-004	...........
	150	37.75	-2.00094E-001	-1.98726E-001	3.65403E-004	...........
	151	38	-1.99616E-001	-1.97891E-001	3.65903E-004	...........
	152	38.25	-1.99079E-001	-1.96139E-001	3.66611E-004	...........
	153	38.5	-1.98389E-001	-1.94184E-001	3.65945E-004	...........
	154	38.75	-1.97469E-001	-1.96400E-001	3.69820E-004	...........
	155	39	-1.96520E-001	-1.95696E-001	3.70278E-004	...........
	156	39.25	-1.96027E-001	-2.02486E-001	3.65028E-004	...........
	157	39.5	-1.96564E-001	-2.06883E-001	3.71903E-004	...........
	158	39.75	-1.98356E-001	-2.00259E-001	3.65070E-004	...........
	159	40	-2.00382E-001	-1.89962E-001	3.68528E-004	...........
	160	40.25	-2.00837E-001	-1.99664E-001	3.71070E-004	...........
	161	40.5	-1.99549E-001	-2.02180E-001	3.71986E-004	...........
	162	40.75	-1.98411E-001	-2.01352E-001	3.74195E-004	...........
	163	41	-1.98716E-001	-2.02077E-001	3.71736E-004	...........
	164	41.25	-1.99914E-001	-2.01637E-001	3.78486E-004	...........
	165	41.5	-2.01020E-001	-2.02484E-001	3.73945E-004	...........
	166	41.75	-2.01668E-001	-2.01393E-001	3.68653E-004	...........
	167	42	-2.01899E-001	-2.00344E-001	3.76111E-004	...........
	168	42.25	-2.01743E-001	-1.98906E-001	3.72278E-004	...........
	169	42.5	-2.01190E-001	-1.98416E-001	3.71528E-004	...........
	170	42.75	-2.00342E-001	-1.97622E-001	3.71986E-004	...........
	171	43	-1.99436E-001	-1.98901E-001	3.72570E-004	...........
	172	43.25	-1.98752E-001	-1.98630E-001	3.76570E-004	...........
	173	43.5	-1.98424E-001	-1.97501E-001	3.70070E-004	...........
	174	43.75	-1.98305E-001	-1.97535E-001	3.74653E-004	...........
	175	44	-1.98116E-001	-1.95671E-001	3.69236E-004	...........
	176	44.25	-1.97643E-001	-1.92903E-001	3.78819E-004	...........
	177	44.5	-1.96840E-001	-1.97890E-001	3.67986E-004	...........
	178	44.75	-1.95927E-001	-1.89796E-001	3.70445E-004	...........
	179	45	-1.95036E-001	-1.92160E-001	3.72278E-004	...........
	180	45.25	-1.94070E-001	-1.94899E-001	3.66986E-004	...........
	181	45.5	-1.93159E-001	-1.86777E-001	3.71903E-004	...........
	182	45.75	-1.92372E-001	-1.91369E-001	3.68070E-004	...........
	183	46	-1.91587E-001	-1.93172E-001	3.73611E-004	...........
	184	46.25	-1.91098E-001	-1.92033E-001	3.74528E-004	...........
	185	46.5	-1.91166E-001	-1.88980E-001	3.75778E-004	...........
	186	46.75	-1.91311E-001	-1.89239E-001	3.70528E-004	...........
	187	47	-1.91035E-001	-1.91714E-001	3.76444E-004	...........
	188	47.25	-1.90544E-001	-1.88917E-001	3.72445E-004	...........
	189	47.5	-1.90196E-001	-1.89016E-001	3.66986E-004	...........
	190	47.75	-1.89939E-001	-1.89385E-001	3.71153E-004	...........
	191	48	-1.89646E-001	-1.89116E-001	3.64986E-004	...........
	192	48.25	-1.89311E-001	-1.84999E-001	3.68236E-004	...........
	193	48.5	-1.88840E-001	-1.89758E-001	3.65445E-004	...........
	194	48.75	-1.88323E-001	-1.89362E-001	3.65903E-004	...........
	195	49	-1.88123E-001	-1.87677E-001	3.65861E-004	...........
	196	49.25	-1.88248E-001	-1.87098E-001	3.70778E-004	...........
	197	49.5	-1.88257E-001	-1.86519E-001	3.68111E-004	...........
	198	49.75	-1.87903E-001	-1.85887E-001	3.66278E-004	...........
	199	50	-1.87300E-001	-1.85283E-001	3.65486E-004	...........
	200	50.25	-1.86622E-001	-1.84541E-001	3.61903E-004	...........
	201	50.5	-1.85949E-001	-1.83952E-001	3.66320E-004	...........
	202	50.75	-1.85291E-001	-1.83444E-001	3.69653E-004	...........
	203	51	-1.84655E-001	-1.82877E-001	3.70778E-004	...........
	204	51.25	-1.84050E-001	-1.82324E-001	3.72861E-004	...........
	205	51.5	-1.83476E-001	-1.81830E-001	3.66111E-004	...........
	206	51.75	-1.82926E-001	-1.81401E-001	3.64403E-004	...........
	207	52	-1.82401E-001	-1.80959E-001	3.62528E-004	...........
	208	52.25	-1.81907E-001	-1.80553E-001	3.65278E-004	...........
	209	52.5	-1.81442E-001	-1.80020E-001	3.67028E-004	...........
	210	52.75	-1.80992E-001	-1.79567E-001	3.67070E-004	...........
	211	53	-1.80539E-001	-1.79175E-001	3.61861E-004	...........
	212	53.25	-1.80369E-001	-1.93636E-001	3.72528E-004	...........
	213	53.5	-1.81198E-001	-1.82717E-001	3.69570E-004	...........
	214	53.75	-1.82978E-001	-1.80873E-001	3.69820E-004	...........
	215	54	-1.84211E-001	-1.79195E-001	3.63945E-004	...........
	216	54.25	-1.83746E-001	-1.77898E-001	3.69903E-004	...........
	217	54.5	-1.81991E-001	-1.75192E-001	3.64820E-004	...........
	218	54.75	-1.79867E-001	-1.75458E-001	3.68611E-004	...........
	219	55	-1.77958E-001	-1.75787E-001	3.63611E-004	...........
	220	55.25	-1.76612E-001	-1.76896E-001	3.65695E-004	...........
	221	55.5	-1.76022E-001	-1.77579E-001	3.62653E-004	...........
	222	55.75	-1.76091E-001	-1.76326E-001	3.67320E-004	...........
	223	56	-1.76434E-001	-1.76210E-001	3.61528E-004	...........
	224	56.25	-1.76640E-001	-1.76014E-001	3.68778E-004	...........
	225	56.5	-1.76561E-001	-1.75239E-001	3.65653E-004	...........
	226	56.75	-1.76268E-001	-1.74803E-001	3.69153E-004	...........
	227	57	-1.75854E-001	-1.74434E-001	3.69570E-004	...........
	228	57.25	-1.75385E-001	-1.74100E-001	3.65653E-004	...........
	229	57.5	-1.74926E-001	-1.73880E-001	3.67320E-004	...........
	230	57.75	-1.74519E-001	-1.73520E-001	3.70820E-004	...........
	231	58	-1.74172E-001	-1.73314E-001	3.63820E-004	...........
	232	58.25	-1.73866E-001	-1.73066E-001	3.63778E-004	...........
	233	58.5	-1.73585E-001	-1.72612E-001	3.69111E-004	...........
	234	58.75	-1.73304E-001	-1.72280E-001	3.65153E-004	...........
	235	59	-1.73000E-001	-1.72008E-001	3.65945E-004	...........
	236	59.25	-1.72672E-001	-1.71566E-001	3.64195E-004	...........
	237	59.5	-1.72281E-001	-1.68619E-001	3.62653E-004	...........
	238	59.75	-1.71714E-001	-1.70533E-001	3.64445E-004	...........
	239	60	-1.70981E-001	-1.68942E-001	3.61320E-004	...........
	240	60.25	-1.70294E-001	-1.69662E-001	3.62111E-004	...........
	241	60.5	-1.69831E-001	-1.70019E-001	3.61486E-004	...........
	242	60.75	-1.69636E-001	-1.70100E-001	3.71361E-004	...........
	243	61	-1.69666E-001	-1.69739E-001	3.65445E-004	...........
	244	61.25	-1.69783E-001	-1.69675E-001	3.66028E-004	...........
	245	61.5	-1.69843E-001	-1.69545E-001	3.72070E-004	...........
	246	61.75	-1.69801E-001	-1.69346E-001	3.71028E-004	...........
	247	62	-1.69683E-001	-1.68981E-001	3.68653E-004	...........
	248	62.25	-1.69509E-001	-1.68682E-001	3.66861E-004	...........
	249	62.5	-1.69283E-001	-1.68374E-001	3.69070E-004	...........
	250	62.75	-1.69014E-001	-1.68222E-001	3.61945E-004	...........
	251	63	-1.68733E-001	-1.68023E-001	3.62111E-004	...........
	252	63.25	-1.68475E-001	-1.68074E-001	3.64903E-004	...........
	253	63.5	-1.68267E-001	-1.67743E-001	3.71778E-004	...........
	254	63.75	-1.68089E-001	-1.66881E-001	3.66736E-004	...........
	255	64	-1.67879E-001	-1.67399E-001	3.70986E-004	...........
	256	64.25	-1.67633E-001	-1.67487E-001	3.69236E-004	...........
	257	64.5	-1.67437E-001	-1.67190E-001	3.63736E-004	...........
	258	64.75	-1.67335E-001	-1.66839E-001	3.67486E-004	...........
	259	65	-1.67257E-001	-1.66806E-001	3.69195E-004	...........
	260	65.25	-1.67131E-001	-1.66439E-001	3.64945E-004	...........
	261	65.5	-1.66951E-001	-1.66308E-001	3.63986E-004	...........
	262	65.75	-1.66741E-001	-1.66080E-001	3.62695E-004	...........
	263	66	-1.66524E-001	-1.65881E-001	3.66111E-004	...........
	264	66.25	-1.66312E-001	-1.65830E-001	3.65570E-004	...........
	265	66.5	-1.66120E-001	-1.65662E-001	3.69903E-004	...........
	266	66.75	-1.65952E-001	-1.65434E-001	3.69403E-004	...........
	267	67	-1.65796E-001	-1.65249E-001	3.68820E-004	...........
	268	67.25	-1.65629E-001	-1.64812E-001	3.67070E-004	...........
	269	67.5	-1.65435E-001	-1.65065E-001	3.70361E-004	...........
	270	67.75	-1.65229E-001	-1.64519E-001	3.67486E-004	...........
	271	68	-1.65030E-001	-1.64226E-001	3.69361E-004	...........
	272	68.25	-1.64804E-001	-1.63333E-001	3.70820E-004	...........
	273	68.5	-1.64496E-001	-1.63391E-001	3.69111E-004	...........
	274	68.75	-1.64125E-001	-1.63992E-001	3.68611E-004	...........
	275	69	-1.63829E-001	-1.64041E-001	3.71195E-004	...........
	276	69.25	-1.63729E-001	-1.64074E-001	3.70070E-004	...........
	277	69.5	-1.63794E-001	-1.63802E-001	3.64653E-004	...........
	278	69.75	-1.63880E-001	-1.63247E-001	3.69903E-004	...........
	279	70	-1.63854E-001	-1.62940E-001	3.69778E-004	...........
	280	70.25	-1.63662E-001	-1.62411E-001	3.64903E-004	...........
	281	70.5	-1.63341E-001	-1.62429E-001	3.69570E-004	...........
	282	70.75	-1.62983E-001	-1.62321E-001	3.66403E-004	...........
	283	71	-1.62676E-001	-1.62207E-001	3.68403E-004	...........
	284	71.25	-1.62459E-001	-1.62023E-001	3.59278E-004	...........
	285	71.5	-1.62306E-001	-1.61854E-001	3.65945E-004	...........
	286	71.75	-1.62172E-001	-1.61761E-001	3.70611E-004	...........
	287	72	-1.62035E-001	-1.61624E-001	3.64820E-004	...........
	288	72.25	-1.61895E-001	-1.61395E-001	3.68403E-004	...........
	289	72.5	-1.61754E-001	-1.61360E-001	3.66361E-004	...........
	290	72.75	-1.61609E-001	-1.61138E-001	3.66070E-004	...........
	291	73	-1.61466E-001	-1.61138E-001	3.71486E-004	...........
	292	73.25	-1.61334E-001	-1.61042E-001	3.63070E-004	...........
	293	73.5	-1.61221E-001	-1.60955E-001	3.67695E-004	...........
	294	73.75	-1.61125E-001	-1.60828E-001	3.71361E-004	...........
	295	74	-1.61035E-001	-1.60644E-001	3.67820E-004	...........
	296	74.25	-1.60932E-001	-1.60450E-001	3.68861E-004	...........
	297	74.5	-1.60803E-001	-1.60300E-001	3.72111E-004	...........
	298	74.75	-1.60651E-001	-1.60203E-001	3.66861E-004	...........
	299	75	-1.60493E-001	-1.60147E-001	3.68070E-004	...........
	300	75.25	-1.60351E-001	-1.59989E-001	3.65153E-004	...........
	301	75.5	-1.60228E-001	-1.59852E-001	3.66486E-004	...........
	302	75.75	-1.60113E-001	-1.59741E-001	3.68111E-004	...........
	303	76	-1.59995E-001	-1.59574E-001	3.62278E-004	...........
	304	76.25	-1.59866E-001	-1.59358E-001	3.65486E-004	...........
	305	76.5	-1.59722E-001	-1.59143E-001	3.67570E-004	...........
	306	76.75	-1.59557E-001	-1.59007E-001	3.68611E-004	...........
	307	77	-1.59379E-001	-1.58986E-001	3.66570E-004	...........
	308	77.25	-1.59213E-001	-1.58952E-001	3.70820E-004	...........
	309	77.5	-1.59083E-001	-1.58780E-001	3.67861E-004	...........
	310	77.75	-1.58984E-001	-1.58618E-001	3.70611E-004	...........
	311	78	-1.58888E-001	-1.58452E-001	3.70361E-004	...........
	312	78.25	-1.58771E-001	-1.58352E-001	3.64695E-004	...........
	313	78.5	-1.58579E-001	-1.55331E-001	3.70820E-004	...........
	314	78.75	-1.58171E-001	-1.56152E-001	3.65445E-004	...........
	315	79	-1.57541E-001	-1.58553E-001	3.65611E-004	...........
	316	79.25	-1.56922E-001	-1.50767E-001	3.70111E-004	...........
	317	79.5	-1.56334E-001	-1.57173E-001	3.73819E-004	...........
	318	79.75	-1.55736E-001	-1.57391E-001	3.71070E-004	...........
	319	80	-1.55506E-001	-1.57037E-001	3.73486E-004	...........
	320	80.25	-1.55892E-001	-1.58198E-001	3.71361E-004	...........
	321	80.5	-1.56596E-001	-1.58090E-001	3.64611E-004	...........
	322	80.75	-1.57248E-001	-1.57637E-001	3.75153E-004	...........
	323	81	-1.57710E-001	-1.59520E-001	3.67903E-004	...........
	324	81.25	-1.58020E-001	-1.57533E-001	3.70570E-004	...........
	325	81.5	-1.58197E-001	-1.56628E-001	3.70820E-004	...........
	326	81.75	-1.58106E-001	-1.56356E-001	3.75028E-004	...........
	327	82	-1.57617E-001	-1.52680E-001	3.68736E-004	...........
	328	82.25	-1.56731E-001	-1.54428E-001	3.71445E-004	...........
	329	82.5	-1.55640E-001	-1.53952E-001	3.65486E-004	...........
	330	82.75	-1.54586E-001	-1.47449E-001	3.70028E-004	...........
	331	83	-1.53531E-001	-1.53884E-001	3.68695E-004	...........
	332	83.25	-1.52585E-001	-1.56738E-001	3.69778E-004	...........
	333	83.5	-1.52435E-001	-1.56786E-001	3.73195E-004	...........
	334	83.75	-1.53334E-001	-1.52916E-001	3.70528E-004	...........
	335	84	-1.54475E-001	-1.56263E-001	3.72778E-004	...........
	336	84.25	-1.55081E-001	-1.54652E-001	3.75653E-004	...........
	337	84.5	-1.55195E-001	-1.55035E-001	3.67861E-004	...........
	338	84.75	-1.55160E-001	-1.55919E-001	3.71903E-004	...........
	339	85	-1.55158E-001	-1.54842E-001	3.67028E-004	...........
	340	85.25	-1.55222E-001	-1.55843E-001	3.79819E-004	...........
	341	85.5	-1.55304E-001	-1.55030E-001	3.72403E-004	...........
	342	85.75	-1.55354E-001	-1.55447E-001	3.72861E-004	...........
	343	86	-1.55366E-001	-1.55366E-001	3.71195E-004	...........
	344	86.25	-1.55338E-001	-1.54307E-001	3.72945E-004	...........
	345	86.5	-1.55210E-001	-1.53247E-001	3.73361E-004	...........
	346	86.75	-1.54917E-001	-1.55358E-001	3.68570E-004	...........
	347	87	-1.54582E-001	-1.54254E-001	3.70278E-004	...........
	348	87.25	-1.54427E-001	-1.55265E-001	3.71070E-004	...........
	349	87.5	-1.54477E-001	-1.53847E-001	3.74903E-004	...........
	350	87.75	-1.54532E-001	-1.52954E-001	3.74111E-004	...........
	351	88	-1.54390E-001	-1.54065E-001	3.68278E-004	...........
	352	88.25	-1.54134E-001	-1.56289E-001	3.70820E-004	...........
	353	88.5	-1.54074E-001	-1.53251E-001	3.70945E-004	...........
	354	88.75	-1.54250E-001	-1.54077E-001	3.70486E-004	...........
	355	89	-1.54353E-001	-1.53598E-001	3.67320E-004	...........
	356	89.25	-1.54220E-001	-1.53343E-001	3.67778E-004	...........
	357	89.5	-1.53883E-001	-1.49498E-001	3.64278E-004	...........
	358	89.75	-1.53329E-001	-1.54176E-001	3.75528E-004	...........
	359	90	-1.52741E-001	-1.53681E-001	3.70028E-004	...........
	360	90.25	-1.52536E-001	-1.53243E-001	3.70736E-004	...........
	361	90.5	-1.52770E-001	-1.52772E-001	3.68153E-004	...........
	362	90.75	-1.53051E-001	-1.52485E-001	3.72070E-004	...........
	363	91	-1.53090E-001	-1.52471E-001	3.71653E-004	...........
	364	91.25	-1.52920E-001	-1.52389E-001	3.67403E-004	...........
	365	91.5	-1.52701E-001	-1.52626E-001	3.74820E-004	...........
	366	91.75	-1.52563E-001	-1.53021E-001	3.68820E-004	...........
	367	92	-1.52555E-001	-1.52770E-001	3.76236E-004	...........
	368	92.25	-1.52640E-001	-1.52559E-001	3.77403E-004	...........
	369	92.5	-1.52712E-001	-1.52316E-001	3.75111E-004	...........
	370	92.75	-1.52687E-001	-1.52217E-001	3.76611E-004	...........
	371	93	-1.52570E-001	-1.52231E-001	3.75986E-004	...........
	372	93.25	-1.52429E-001	-1.52456E-001	3.72278E-004	...........
	373	93.5	-1.52333E-001	-1.52191E-001	3.70695E-004	...........
	374	93.75	-1.52296E-001	-1.52244E-001	3.75986E-004	...........
	375	94	-1.52293E-001	-1.52734E-001	3.74153E-004	...........
	376	94.25	-1.52309E-001	-1.51830E-001	3.71945E-004	...........
	377	94.5	-1.52201E-001	-1.45987E-001	3.62903E-004	...........
	378	94.75	-1.51698E-001	-1.53706E-001	3.68861E-004	...........
	379	95	-1.51011E-001	-1.52638E-001	3.70611E-004	...........
	380	95.25	-1.50824E-001	-1.51791E-001	3.70695E-004	...........
	381	95.5	-1.51246E-001	-1.51280E-001	3.75611E-004	...........
	382	95.75	-1.51689E-001	-1.51281E-001	3.67528E-004	...........
	383	96	-1.51779E-001	-1.51257E-001	3.69486E-004	...........
	384	96.25	-1.51621E-001	-1.51323E-001	3.74653E-004	...........
	385	96.5	-1.51424E-001	-1.50720E-001	3.70445E-004	...........
	386	96.75	-1.51260E-001	-1.50841E-001	3.74778E-004	...........
	387	97	-1.51107E-001	-1.50756E-001	3.76486E-004	...........
	388	97.25	-1.50961E-001	-1.50692E-001	3.82153E-004	...........
	389	97.5	-1.50844E-001	-1.50607E-001	3.73653E-004	...........
	390	97.75	-1.50756E-001	-1.50501E-001	3.74028E-004	...........
	391	98	-1.50682E-001	-1.50547E-001	3.71903E-004	...........
	392	98.25	-1.50614E-001	-1.50391E-001	3.71820E-004	...........
	393	98.5	-1.50551E-001	-1.50335E-001	3.73403E-004	...........
	394	98.75	-1.50488E-001	-1.50300E-001	3.77986E-004	...........
	395	99	-1.50420E-001	-1.50161E-001	3.68320E-004	...........
	396	99.25	-1.50348E-001	-1.50111E-001	3.75361E-004	...........
	397	99.5	-1.50273E-001	-1.50068E-001	3.71111E-004	...........
	398	99.75	-1.50196E-001	-1.49944E-001	3.72320E-004	...........
	399	100	-1.50123E-001	-1.49961E-001	3.69236E-004	...........
	400	100.25	-1.50054E-001	-1.49836E-001	3.69653E-004	...........
	401	100.5	-1.49985E-001	-1.49613E-001	3.71861E-004	...........
	402	100.75	-1.49904E-001	-1.49563E-001	3.69486E-004	...........
	403	101	-1.49800E-001	-1.49443E-001	3.69695E-004	...........
	404	101.25	-1.49684E-001	-1.49371E-001	3.75028E-004	...........
	405	101.5	-1.49568E-001	-1.49154E-001	3.78611E-004	...........
	406	101.75	-1.49452E-001	-1.49036E-001	3.71320E-004	...........
	407	102	-1.49325E-001	-1.48817E-001	3.69236E-004	...........
	408	102.25	-1.49185E-001	-1.48909E-001	3.69195E-004	...........
	409	102.5	-1.49051E-001	-1.48839E-001	3.69653E-004	...........
	410	102.75	-1.48946E-001	-1.48751E-001	3.72236E-004	...........
	411	103	-1.48876E-001	-1.48767E-001	3.78278E-004	...........
	412	103.25	-1.48827E-001	-1.48735E-001	3.73278E-004	...........
	413	103.5	-1.48787E-001	-1.48588E-001	3.67695E-004	...........
	414	103.75	-1.48747E-001	-1.48621E-001	3.71570E-004	...........
	415	104	-1.48654E-001	-1.46140E-001	3.75028E-004	...........
	416	104.25	-1.48368E-001	-1.46285E-001	3.75694E-004	...........
	417	104.5	-1.47833E-001	-1.47581E-001	3.75778E-004	...........
	418	104.75	-1.47289E-001	-1.47344E-001	3.74278E-004	...........
	419	105	-1.47058E-001	-1.48592E-001	3.72528E-004	...........
	420	105.25	-1.47185E-001	-1.46711E-001	3.76944E-004	...........
	421	105.5	-1.47416E-001	-1.47142E-001	3.72486E-004	...........
	422	105.75	-1.47282E-001	-1.36405E-001	3.74195E-004	...........
	423	106	-1.46236E-001	-1.43031E-001	3.75653E-004	...........
	424	106.25	-1.44418E-001	-1.44757E-001	3.75820E-004	...........
	425	106.5	-1.42785E-001	-1.34255E-001	3.76153E-004	...........
	426	106.75	-1.41782E-001	-1.46963E-001	3.71861E-004	...........
	427	107	-1.41229E-001	-1.39122E-001	3.78153E-004	...........
	428	107.25	-1.41077E-001	-1.39807E-001	3.71736E-004	...........
	429	107.5	-1.41026E-001	-1.39142E-001	3.71945E-004	...........
	430	107.75	-1.40881E-001	-1.50670E-001	3.75361E-004	...........
	431	108	-1.41318E-001	-1.44667E-001	3.76278E-004	...........
	432	108.25	-1.42873E-001	-1.50902E-001	3.74153E-004	...........
	433	108.5	-1.45074E-001	-1.50927E-001	3.74069E-004	...........
	434	108.75	-1.47217E-001	-1.49651E-001	3.76319E-004	...........
	435	109	-1.48826E-001	-1.47467E-001	3.74069E-004	...........
	436	109.25	-1.49560E-001	-1.50190E-001	3.71195E-004	...........
	437	109.5	-1.49507E-001	-1.46545E-001	3.78319E-004	...........
	438	109.75	-1.49077E-001	-1.48260E-001	3.77486E-004	...........
	439	110	-1.48590E-001	-1.49142E-001	3.75861E-004	...........
	440	110.25	-1.48285E-001	-1.48231E-001	3.80194E-004	...........
	441	110.5	-1.48252E-001	-1.47956E-001	3.79694E-004	...........
	442	110.75	-1.48292E-001	-1.47041E-001	3.82694E-004	...........
	443	111	-1.48178E-001	-1.47792E-001	3.75986E-004	...........
	444	111.25	-1.47925E-001	-1.47446E-001	3.70653E-004	...........
	445	111.5	-1.47685E-001	-1.47243E-001	3.77361E-004	...........
	446	111.75	-1.47516E-001	-1.46558E-001	3.74611E-004	...........
	447	112	-1.47335E-001	-1.46274E-001	3.79194E-004	...........
	448	112.25	-1.47074E-001	-1.46467E-001	3.78278E-004	...........
	449	112.5	-1.46794E-001	-1.47049E-001	3.81278E-004	...........
	450	112.75	-1.46642E-001	-1.47476E-001	3.80569E-004	...........
	451	113	-1.46706E-001	-1.47315E-001	3.78653E-004	...........
	452	113.25	-1.46924E-001	-1.47303E-001	3.78486E-004	...........
	453	113.5	-1.47141E-001	-1.47099E-001	3.74445E-004	...........
	454	113.75	-1.47249E-001	-1.47028E-001	3.76278E-004	...........
	455	114	-1.47240E-001	-1.46922E-001	3.74986E-004	...........
	456	114.25	-1.47158E-001	-1.46890E-001	3.75611E-004	...........
	457	114.5	-1.47057E-001	-1.46877E-001	3.77486E-004	...........
	458	114.75	-1.46962E-001	-1.46356E-001	3.78278E-004	...........
	459	115	-1.46860E-001	-1.46626E-001	3.76944E-004	...........
	460	115.25	-1.46744E-001	-1.46665E-001	3.74069E-004	...........
	461	115.5	-1.46653E-001	-1.46747E-001	3.76236E-004	...........
	462	115.75	-1.46622E-001	-1.46528E-001	3.75944E-004	...........
	463	116	-1.46631E-001	-1.46737E-001	3.73653E-004	...........
	464	116.25	-1.46637E-001	-1.46294E-001	3.73736E-004	...........
	465	116.5	-1.46603E-001	-1.45855E-001	3.70528E-004	...........
	466	116.75	-1.46499E-001	-1.46502E-001	3.76528E-004	...........
	467	117	-1.46365E-001	-1.46355E-001	3.78861E-004	...........
	468	117.25	-1.46280E-001	-1.45939E-001	3.82111E-004	...........
	469	117.5	-1.46242E-001	-1.45980E-001	3.81694E-004	...........
	470	117.75	-1.46178E-001	-1.45478E-001	3.86653E-004	...........
	471	118	-1.46047E-001	-1.45566E-001	3.79611E-004	...........
	472	118.25	-1.45875E-001	-1.45673E-001	3.78736E-004	...........
	473	118.5	-1.45726E-001	-1.45730E-001	3.80403E-004	...........
	474	118.75	-1.45651E-001	-1.45646E-001	3.82528E-004	...........
	475	119	-1.45640E-001	-1.45510E-001	3.85944E-004	...........
	476	119.25	-1.45640E-001	-1.45652E-001	3.76611E-004	...........
	477	119.5	-1.45630E-001	-1.45681E-001	3.83361E-004	...........
	478	119.75	-1.45624E-001	-1.45752E-001	3.77528E-004	...........
	479	120	-1.45641E-001	-1.45708E-001	3.74403E-004	...........
	480	120.25	-1.45672E-001	-1.45681E-001	3.80653E-004	...........
	481	120.5	-1.45694E-001	-1.45592E-001	3.79611E-004	...........
	482	120.75	-1.45691E-001	-1.45558E-001	3.75736E-004	...........
	483	121	-1.45658E-001	-1.45364E-001	3.76570E-004	...........
	484	121.25	-1.45595E-001	-1.45181E-001	3.78028E-004	...........
	485	121.5	-1.45499E-001	-1.45152E-001	3.74778E-004	...........
	486	121.75	-1.45380E-001	-1.45063E-001	3.78653E-004	...........
	487	122	-1.45260E-001	-1.44955E-001	3.75570E-004	...........
	488	122.25	-1.45157E-001	-1.45059E-001	3.76653E-004	...........
	489	122.5	-1.45080E-001	-1.44966E-001	3.78028E-004	...........
	490	122.75	-1.45030E-001	-1.44860E-001	3.78986E-004	...........
	491	123	-1.44956E-001	-1.42987E-001	3.78945E-004	...........
	492	123.25	-1.44756E-001	-1.44403E-001	3.80528E-004	...........
	493	123.5	-1.44440E-001	-1.44272E-001	3.73361E-004	...........
	494	123.75	-1.44188E-001	-1.44221E-001	3.75320E-004	...........
	495	124	-1.44135E-001	-1.45346E-001	3.79778E-004	...........
	496	124.25	-1.44287E-001	-1.45605E-001	3.78653E-004	...........
	497	124.5	-1.44606E-001	-1.45558E-001	3.79236E-004	...........
	498	124.75	-1.44952E-001	-1.43265E-001	3.72528E-004	...........
	499	125	-1.45081E-001	-1.45222E-001	3.73819E-004	...........
	500	125.25	-1.44942E-001	-1.44771E-001	3.76153E-004	...........
	501	125.5	-1.44754E-001	-1.44471E-001	3.73403E-004	...........
	502	125.75	-1.44665E-001	-1.44389E-001	3.72153E-004	...........
	503	126	-1.44615E-001	-1.44277E-001	3.75903E-004	...........
	504	126.25	-1.44535E-001	-1.44319E-001	3.75653E-004	...........
	505	126.5	-1.44440E-001	-1.44431E-001	3.77653E-004	...........
	506	126.75	-1.44371E-001	-1.44202E-001	3.75278E-004	...........
	507	127	-1.44334E-001	-1.44163E-001	3.75320E-004	...........
	508	127.25	-1.44300E-001	-1.44162E-001	3.75111E-004	...........
	509	127.5	-1.44251E-001	-1.44072E-001	3.74820E-004	...........
	510	127.75	-1.44194E-001	-1.43942E-001	3.77236E-004	...........
	511	128	-1.44133E-001	-1.44044E-001	3.77986E-004	...........
	512	128.25	-1.44076E-001	-1.44057E-001	3.83528E-004	...........
	513	128.5	-1.44037E-001	-1.43902E-001	3.82403E-004	...........
	514	128.75	-1.44010E-001	-1.43739E-001	3.77903E-004	...........
	515	129	-1.43967E-001	-1.43713E-001	3.86986E-004	...........
	516	129.25	-1.43893E-001	-1.43577E-001	3.76736E-004	...........
	517	129.5	-1.43798E-001	-1.43512E-001	3.76153E-004	...........
	518	129.75	-1.43703E-001	-1.43609E-001	3.84611E-004	...........
	519	130	-1.43628E-001	-1.43568E-001	3.78819E-004	...........
	520	130.25	-1.43584E-001	-1.43496E-001	3.77611E-004	...........
	521	130.5	-1.43560E-001	-1.43406E-001	3.78653E-004	...........
	522	130.75	-1.43532E-001	-1.43369E-001	3.76028E-004	...........
	523	131	-1.43485E-001	-1.43175E-001	3.80028E-004	...........
	524	131.25	-1.43416E-001	-1.43156E-001	3.86236E-004	...........
	525	131.5	-1.43334E-001	-1.43225E-001	3.91486E-004	...........
	526	131.75	-1.43262E-001	-1.43301E-001	3.82403E-004	...........
	527	132	-1.43226E-001	-1.43269E-001	3.81403E-004	...........
	528	132.25	-1.43224E-001	-1.42994E-001	3.85736E-004	...........
	529	132.5	-1.43215E-001	-1.42931E-001	3.80486E-004	...........
	530	132.75	-1.43163E-001	-1.42924E-001	3.78778E-004	...........
	531	133	-1.43077E-001	-1.42854E-001	3.74361E-004	...........
	532	133.25	-1.42990E-001	-1.42828E-001	3.73153E-004	...........
	533	133.5	-1.42919E-001	-1.42700E-001	3.83111E-004	...........
	534	133.75	-1.42858E-001	-1.42616E-001	3.83653E-004	...........
	535	134	-1.42792E-001	-1.42603E-001	3.86361E-004	...........
	536	134.25	-1.42723E-001	-1.42585E-001	3.83236E-004	...........
	537	134.5	-1.42663E-001	-1.42641E-001	3.81819E-004	...........
	538	134.75	-1.42623E-001	-1.42511E-001	3.72528E-004	...........
	539	135	-1.42595E-001	-1.42302E-001	3.79278E-004	...........
	540	135.25	-1.42539E-001	-1.41646E-001	3.76694E-004	...........
	541	135.5	-1.42414E-001	-1.42265E-001	3.80861E-004	...........
	542	135.75	-1.42252E-001	-1.42357E-001	3.84319E-004	...........
	543	136	-1.42155E-001	-1.42296E-001	3.79361E-004	...........
	544	136.25	-1.42164E-001	-1.42318E-001	3.83694E-004	...........
	545	136.5	-1.42228E-001	-1.42358E-001	3.76778E-004	...........
	546	136.75	-1.42285E-001	-1.42284E-001	3.78819E-004	...........
	547	137	-1.42315E-001	-1.42283E-001	3.76403E-004	...........
	548	137.25	-1.42317E-001	-1.42178E-001	3.79486E-004	...........
	549	137.5	-1.42295E-001	-1.42128E-001	3.85069E-004	...........
	550	137.75	-1.42257E-001	-1.42307E-001	3.86653E-004	...........
	551	138	-1.42210E-001	-1.41446E-001	3.91361E-004	...........
	552	138.25	-1.42115E-001	-1.41051E-001	3.82486E-004	...........
	553	138.5	-1.41926E-001	-1.41839E-001	3.93778E-004	...........
	554	138.75	-1.41717E-001	-1.42296E-001	3.87486E-004	...........
	555	139	-1.41617E-001	-1.40440E-001	3.84153E-004	...........
	556	139.25	-1.41552E-001	-1.39609E-001	3.91611E-004	...........
	557	139.5	-1.41365E-001	-1.44094E-001	3.90611E-004	...........
	558	139.75	-1.41256E-001	-1.42474E-001	3.83611E-004	...........
	559	140	-1.41495E-001	-1.40696E-001	3.83236E-004	...........
	560	140.25	-1.41810E-001	-1.39873E-001	3.87861E-004	...........
	561	140.5	-1.41754E-001	-1.42238E-001	3.88736E-004	...........
	562	140.75	-1.41393E-001	-1.39485E-001	3.84403E-004	...........
	563	141	-1.41078E-001	-1.42801E-001	3.81611E-004	...........
	564	141.25	-1.41013E-001	-1.42272E-001	3.83903E-004	...........
	565	141.5	-1.41262E-001	-1.42692E-001	3.83444E-004	...........
	566	141.75	-1.41727E-001	-1.42795E-001	3.91403E-004	...........
	567	142	-1.42182E-001	-1.42198E-001	3.79361E-004	...........
	568	142.25	-1.42449E-001	-1.41925E-001	3.84194E-004	...........
	569	142.5	-1.42461E-001	-1.41235E-001	3.82653E-004	...........
	570	142.75	-1.42255E-001	-1.41872E-001	3.83944E-004	...........
	571	143	-1.41979E-001	-1.41991E-001	3.88153E-004	...........
	572	143.25	-1.41795E-001	-1.41463E-001	3.86653E-004	...........
	573	143.5	-1.41731E-001	-1.41676E-001	3.85236E-004	...........
	574	143.75	-1.41720E-001	-1.42270E-001	3.92403E-004	...........
	575	144	-1.41756E-001	-1.42418E-001	3.87528E-004	...........
	576	144.25	-1.41886E-001	-1.42463E-001	3.86361E-004	...........
	577	144.5	-1.42083E-001	-1.42329E-001	3.90611E-004	...........
	578	144.75	-1.42255E-001	-1.42127E-001	3.81819E-004	...........
	579	145	-1.42323E-001	-1.41907E-001	3.84986E-004	...........
	580	145.25	-1.42275E-001	-1.41833E-001	3.82319E-004	...........
	581	145.5	-1.42150E-001	-1.41907E-001	3.81069E-004	...........
	582	145.75	-1.42021E-001	-1.42004E-001	3.84736E-004	...........
	583	146	-1.41939E-001	-1.41810E-001	3.80986E-004	...........
	584	146.25	-1.41905E-001	-1.41708E-001	3.78111E-004	...........
	585	146.5	-1.41877E-001	-1.41767E-001	3.83319E-004	...........
	586	146.75	-1.41838E-001	-1.41986E-001	3.83069E-004	...........
	587	147	-1.41817E-001	-1.41945E-001	3.83278E-004	...........
	588	147.25	-1.41837E-001	-1.41897E-001	3.86528E-004	...........
	589	147.5	-1.41875E-001	-1.41756E-001	3.83194E-004	...........
	590	147.75	-1.41881E-001	-1.41330E-001	3.85361E-004	...........
	591	148	-1.41818E-001	-1.41552E-001	3.86819E-004	...........
	592	148.25	-1.41701E-001	-1.41488E-001	3.90278E-004	...........
	593	148.5	-1.41587E-001	-1.41442E-001	3.87319E-004	...........
	594	148.75	-1.41515E-001	-1.41519E-001	3.83819E-004	...........
	595	149	-1.41483E-001	-1.41409E-001	3.86778E-004	...........
	596	149.25	-1.41420E-001	-1.38783E-001	3.89694E-004	...........
	597	149.5	-1.41148E-001	-1.38891E-001	3.88361E-004	...........
	598	149.75	-1.40595E-001	-1.40590E-001	3.74653E-004	...........
	599	150	-1.40017E-001	-1.39319E-001	3.84028E-004	...........
	600	150.25	-1.39723E-001	-1.40580E-001	3.85903E-004	...........
	601	150.5	-1.39727E-001	-1.39908E-001	3.85194E-004	...........
	602	150.75	-1.39756E-001	-1.34331E-001	3.84944E-004	...........
	603	151	-1.39372E-001	-1.37220E-001	3.80569E-004	...........
	604	151.25	-1.38552E-001	-1.42166E-001	3.90903E-004	...........
	605	151.5	-1.37938E-001	-1.33722E-001	3.87236E-004	...........
	606	151.75	-1.37816E-001	-1.39294E-001	3.94236E-004	...........
	607	152	-1.37552E-001	-1.25016E-001	3.88778E-004	...........
	608	152.25	-1.36435E-001	-1.36062E-001	3.88236E-004	...........
	609	152.5	-1.34170E-001	-1.06290E-001	3.94694E-004	...........
	610	152.75	-1.29308E-001	-6.16179E-002	3.85944E-004	...........
	611	153	-1.18349E-001	-5.14910E-002	3.85694E-004	...........
	612	153.25	-1.01358E-001	-1.16189E-001	3.89569E-004	...........
	613	153.5	-8.72951E-002	-1.18725E-001	3.92653E-004	...........
	614	153.75	-8.71736E-002	-1.91914E-001	3.84236E-004	...........
	615	154	-1.04181E-001	-1.97113E-001	3.96778E-004	...........
	616	154.25	-1.32359E-001	-1.82594E-001	3.93069E-004	...........
	617	154.5	-1.59594E-001	-1.47585E-001	3.91319E-004	...........
	618	154.75	-1.74181E-001	-1.50133E-001	3.89986E-004	...........
	619	155	-1.73763E-001	-1.60129E-001	3.88236E-004	...........
	620	155.25	-1.65724E-001	-1.43152E-001	3.86944E-004	...........
	621	155.5	-1.57943E-001	-1.52122E-001	3.91736E-004	...........
	622	155.75	-1.52788E-001	-1.37142E-001	3.94736E-004	...........
	623	156	-1.49298E-001	-1.48334E-001	3.83778E-004	...........
	624	156.25	-1.46732E-001	-1.44690E-001	3.86569E-004	...........
	625	156.5	-1.45091E-001	-1.36890E-001	3.84528E-004	...........
	626	156.75	-1.43917E-001	-1.39787E-001	3.85903E-004	...........
	627	157	-1.42580E-001	-1.45351E-001	3.83694E-004	...........
	628	157.25	-1.41653E-001	-1.47603E-001	3.84361E-004	...........
	629	157.5	-1.42085E-001	-1.45143E-001	3.83111E-004	...........
	630	157.75	-1.43517E-001	-1.43701E-001	3.94653E-004	...........
	631	158	-1.44731E-001	-1.45629E-001	3.92278E-004	...........
	632	158.25	-1.45160E-001	-1.44766E-001	3.93819E-004	...........
	633	158.5	-1.45109E-001	-1.44144E-001	3.84278E-004	...........
	634	158.75	-1.44930E-001	-1.44399E-001	3.81194E-004	...........
	635	159	-1.44714E-001	-1.44171E-001	3.87069E-004	...........
	636	159.25	-1.44490E-001	-1.43506E-001	3.89653E-004	...........
	637	159.5	-1.44230E-001	-1.41758E-001	3.79903E-004	...........
	638	159.75	-1.43761E-001	-1.39141E-001	3.79528E-004	...........
	639	160	-1.42904E-001	-1.40403E-001	3.87944E-004	...........
	640	160.25	-1.41809E-001	-1.40972E-001	3.83903E-004	...........
	641	160.5	-1.40949E-001	-1.41448E-001	3.79861E-004	...........
	642	160.75	-1.40639E-001	-1.41051E-001	3.86611E-004	...........
	643	161	-1.40739E-001	-1.40665E-001	3.87194E-004	...........
	644	161.25	-1.40899E-001	-1.40292E-001	3.79778E-004	...........
	645	161.5	-1.40889E-001	-1.40073E-001	3.84986E-004	...........
	646	161.75	-1.40711E-001	-1.40621E-001	3.79486E-004	...........
	647	162	-1.40507E-001	-1.40297E-001	3.82819E-004	...........
	648	162.25	-1.40392E-001	-1.40510E-001	3.81569E-004	...........
	649	162.5	-1.40357E-001	-1.39589E-001	3.77319E-004	...........
	650	162.75	-1.40271E-001	-1.38202E-001	3.77028E-004	...........
	651	163	-1.39985E-001	-1.38779E-001	3.78236E-004	...........
	652	163.25	-1.39504E-001	-1.38209E-001	3.79069E-004	...........
	653	163.5	-1.39033E-001	-1.39803E-001	3.83319E-004	...........
	654	163.75	-1.38814E-001	-1.39990E-001	3.80528E-004	...........
	655	164	-1.38928E-001	-1.39034E-001	3.79653E-004	...........
	656	164.25	-1.39172E-001	-1.37900E-001	3.78444E-004	...........
	657	164.5	-1.39205E-001	-1.37768E-001	3.80528E-004	...........
	658	164.75	-1.38929E-001	-1.39213E-001	3.85153E-004	...........
	659	165	-1.38628E-001	-1.40214E-001	3.82736E-004	...........
	660	165.25	-1.38625E-001	-1.38308E-001	3.75986E-004	...........
	661	165.5	-1.38711E-001	-1.31345E-001	3.81444E-004	...........
	662	165.75	-1.38271E-001	-1.39093E-001	3.84694E-004	...........
	663	166	-1.37395E-001	-1.40817E-001	3.87778E-004	...........
	664	166.25	-1.37122E-001	-1.41634E-001	3.87861E-004	...........
	665	166.5	-1.38025E-001	-1.42591E-001	3.86444E-004	...........
	666	166.75	-1.39573E-001	-1.42108E-001	3.88861E-004	...........
	667	167	-1.40967E-001	-1.42124E-001	3.87444E-004	...........
	668	167.25	-1.41796E-001	-1.40896E-001	3.90486E-004	...........
	669	167.5	-1.42033E-001	-1.41759E-001	3.86236E-004	...........
	670	167.75	-1.41905E-001	-1.41719E-001	3.86361E-004	...........
	671	168	-1.41718E-001	-1.41894E-001	3.86986E-004	...........
	672	168.25	-1.41653E-001	-1.41790E-001	3.85694E-004	...........
	673	168.5	-1.41688E-001	-1.41479E-001	3.85778E-004	...........
	674	168.75	-1.41717E-001	-1.41289E-001	3.83069E-004	...........
	675	169	-1.41659E-001	-1.40991E-001	3.88611E-004	...........
	676	169.25	-1.41507E-001	-1.40891E-001	3.85861E-004	...........
	677	169.5	-1.41308E-001	-1.41027E-001	3.87861E-004	...........
	678	169.75	-1.41127E-001	-1.40737E-001	3.88986E-004	...........
	679	170	-1.40993E-001	-1.40638E-001	3.85111E-004	...........
	680	170.25	-1.40888E-001	-1.40676E-001	3.88194E-004	...........
	681	170.5	-1.40794E-001	-1.40654E-001	3.85653E-004	...........
	682	170.75	-1.40720E-001	-1.40611E-001	3.91403E-004	...........
	683	171	-1.40671E-001	-1.40535E-001	3.87194E-004	...........
	684	171.25	-1.40634E-001	-1.40499E-001	3.81903E-004	...........
	685	171.5	-1.40597E-001	-1.40519E-001	3.85819E-004	...........
	686	171.75	-1.40560E-001	-1.40544E-001	3.84028E-004	...........
	687	172	-1.40534E-001	-1.40463E-001	3.81236E-004	...........
	688	172.25	-1.40515E-001	-1.40306E-001	3.86861E-004	...........
	689	172.5	-1.40486E-001	-1.40333E-001	3.81611E-004	...........
	690	172.75	-1.40437E-001	-1.40288E-001	3.82361E-004	...........
	691	173	-1.40381E-001	-1.40253E-001	3.82069E-004	...........
	692	173.25	-1.40331E-001	-1.40245E-001	3.78444E-004	...........
	693	173.5	-1.40294E-001	-1.40234E-001	3.83444E-004	...........
	694	173.75	-1.40264E-001	-1.40063E-001	3.85611E-004	...........
	695	174	-1.40229E-001	-1.40047E-001	3.84361E-004	...........
	696	174.25	-1.40179E-001	-1.40021E-001	3.81569E-004	...........
	697	174.5	-1.40119E-001	-1.39876E-001	3.85153E-004	...........
	698	174.75	-1.40052E-001	-1.39766E-001	3.85153E-004	...........
	699	175	-1.39978E-001	-1.39771E-001	3.85736E-004	...........
	700	175.25	-1.39899E-001	-1.39766E-001	3.85486E-004	...........
	701	175.5	-1.39831E-001	-1.39756E-001	3.90194E-004	...........
	702	175.75	-1.39788E-001	-1.39770E-001	3.83319E-004	...........
	703	176	-1.39767E-001	-1.39746E-001	3.83319E-004	...........
	704	176.25	-1.39759E-001	-1.39704E-001	3.80778E-004	...........
	705	176.5	-1.39749E-001	-1.39603E-001	3.79111E-004	...........
	706	176.75	-1.39725E-001	-1.39552E-001	3.88403E-004	...........
	707	177	-1.39683E-001	-1.39546E-001	3.81528E-004	...........
	708	177.25	-1.39632E-001	-1.39599E-001	3.82111E-004	...........
	709	177.5	-1.39594E-001	-1.39621E-001	3.84361E-004	...........
	710	177.75	-1.39579E-001	-1.39561E-001	3.87611E-004	...........
	711	178	-1.39579E-001	-1.39466E-001	3.85819E-004	...........
	712	178.25	-1.39572E-001	-1.39514E-001	3.91278E-004	...........
	713	178.5	-1.39549E-001	-1.39427E-001	3.86861E-004	...........
	714	178.75	-1.39505E-001	-1.38785E-001	3.81569E-004	...........
	715	179	-1.39395E-001	-1.38072E-001	3.81111E-004	...........
	716	179.25	-1.39173E-001	-1.39039E-001	3.84653E-004	...........
	717	179.5	-1.38919E-001	-1.39240E-001	3.84694E-004	...........
	718	179.75	-1.38801E-001	-1.39234E-001	3.86111E-004	...........
	719	180	-1.38759E-001	-1.33259E-001	3.91403E-004	...........
	720	180.25	-1.38432E-001	-1.39047E-001	3.91403E-004	...........
	721	180.5	-1.37819E-001	-1.39209E-001	3.84986E-004	...........
	722	180.75	-1.37517E-001	-1.39300E-001	3.88736E-004	...........
	723	181	-1.37845E-001	-1.38803E-001	3.86111E-004	...........
	724	181.25	-1.38440E-001	-1.39433E-001	3.87278E-004	...........
	725	181.5	-1.38893E-001	-1.39337E-001	3.88528E-004	...........
	726	181.75	-1.39131E-001	-1.38931E-001	3.86944E-004	...........
	727	182	-1.39204E-001	-1.38419E-001	3.83486E-004	...........
	728	182.25	-1.39107E-001	-1.37653E-001	3.88611E-004	...........
	729	182.5	-1.38820E-001	-1.37361E-001	3.88028E-004	...........
	730	182.75	-1.38374E-001	-1.36421E-001	3.90028E-004	...........
	731	183	-1.37874E-001	-1.38352E-001	3.88653E-004	...........
	732	183.25	-1.37527E-001	-1.38535E-001	3.84444E-004	...........
	733	183.5	-1.37504E-001	-1.37421E-001	3.83528E-004	...........
	734	183.75	-1.37705E-001	-1.38221E-001	3.85903E-004	...........
	735	184	-1.37895E-001	-1.38321E-001	3.84611E-004	...........
	736	184.25	-1.38022E-001	-1.38837E-001	3.89153E-004	...........
	737	184.5	-1.38186E-001	-1.39370E-001	3.84528E-004	...........
	738	184.75	-1.38445E-001	-1.39076E-001	3.84903E-004	...........
	739	185	-1.38738E-001	-1.38657E-001	3.88028E-004	...........
	740	185.25	-1.38903E-001	-1.37366E-001	3.87111E-004	...........
	741	185.5	-1.38791E-001	-1.37275E-001	3.78361E-004	...........
	742	185.75	-1.38409E-001	-1.37568E-001	3.82028E-004	...........
	743	186	-1.37962E-001	-1.38002E-001	3.85361E-004	...........
	744	186.25	-1.37696E-001	-1.38227E-001	3.83319E-004	...........
	745	186.5	-1.37693E-001	-1.38266E-001	3.81528E-004	...........
	746	186.75	-1.37857E-001	-1.38079E-001	3.90111E-004	...........
	747	187	-1.38033E-001	-1.38118E-001	3.88153E-004	...........
	748	187.25	-1.38128E-001	-1.38009E-001	3.92986E-004	...........
EOC	QUANT	-0.1381276	Open Circuit (V)
PSTATMODEL	IQUANT	4	Pstat Model
PSTATSECTION	LABEL	REF600-19025	Pstat Section
PSTATSERIALNO	LABEL	19025	Pstat Serial Number
CTRLMODE	IQUANT	1	Control Mode
IESTAB	IQUANT	0	I/E Stability
CASPEED	IQUANT	1	Control Amp Speed
CONVENTION	IQUANT	1	Current Convention
ICHRANGE	IQUANT	2	Ich Range
ICHRANGEMODE	TOGGLE	F	Ich Auto Range
ICHOFFSETENABLE	TOGGLE	T	Ich Offset Enable
ICHOFFSET	QUANT	0	Ich Offset (V)
ICHFILTER	IQUANT	3	Ich Filter
VCHRANGE	IQUANT	2	Vch Range
VCHRANGEMODE	TOGGLE	F	Vch Auto Range
VCHOFFSETENABLE	TOGGLE	T	Vch Offset Enable
VCHOFFSET	QUANT	0	Vch Offset (V)
VCHFILTER	IQUANT	3	Vch Filter
ACHRANGE	IQUANT	2	Ach Range
ACHOFFSETENABLE	TOGGLE	F	Ach Offset Enable
ACHOFFSET	QUANT	0	Ach Offset (V)
ACHFILTER	IQUANT	3	Ach Filter
IERANGELOWERLIMIT	IQUANT	1	I/E Range Lower Limit
IERANGEMODE	TOGGLE	F	I/E AutoRange
IERANGE	IQUANT	3	I/E Range
POSFEEDENABLE	TOGGLE	F	Positive Feedback IR Comp
POSFEEDRESISTANCE	QUANT	0	Positive Feedback Resistance (ohm)
ACHSELECT	IQUANT	0	Ach Select
CABLEID	IQUANT	13	Cable ID
DCCALDATE	LABEL	2017-4-11	DC Calibration Date
ACCALDATE	LABEL	2017-4-11	AC Calibration Date
THERMOSELECT	IQUANT	1	Thermo Select
FRAMEWORKVERSION	QUANT	6.04	Framework Version
INSTRUMENTVERSION	LABEL	3.04	Instrument Version
ZCURVE	TABLE
	Pt	Time	Freq	Zreal	Zimag	Zsig	Zmod	Zphz	Idc	Vdc	IERange
	#	s	Hz	ohm	ohm	V	ohm	ï¿½	A	V	#
	0	6	100078.1	17774.83	-21332.18	1	27767	-50.19757	-1.421459E-006	-0.1376041	8
	1	11	63140.62	20608.95	-30147.45	1	36518.45	-55.6433	1.195447E-006	-0.1371499	8
	2	13	39890.62	23992.9	-43517.24	1	49693.15	-61.13019	4.923362E-007	-0.138368	7
	3	19	25171.88	28610.65	-63595.44	1	69734.85	-65.77773	8.289987E-007	-0.1380454	7
	4	24	15890.62	35461.82	-93643.11	1	100132.8	-69.25877	9.125213E-007	-0.1382506	7
	5	30	10078.13	44101.97	-138531	1	145381.7	-72.34089	4.991957E-007	-0.1383701	7
	6	35	6328.125	61259.46	-208930.8	1	217726.5	-73.65862	5.075858E-007	-0.1374984	7
	7	42	3984.375	81397.62	-310709.7	1	321194.8	-75.31994	-1.175857E-007	-0.136485	6
	9	50	1577.524	158401.7	-687997.9	1	705997.3	-77.03441	-3.240935E-008	-0.138015	6
	10	55	998.264	220561.9	-1038618	1	1061779	-78.01073	1.320088E-007	-0.1393863	6
	11	59	627.7902	301455	-1566121	1	1594870	-79.10467	1.375009E-007	-0.1391281	6
	12	63	397.9953	527206.8	-2265446	1	2325982	-76.8995	-2.721552E-012	-0.137379	5
	13	68	252.4038	686590.3	-3371313	1	3440517	-78.48875	-3.305316E-011	-0.1373833	5
	14	70	158.3615	1180553	-5038199	1	5174664	-76.81236	-3.131015E-011	-0.1373762	5
	15	73	100.4464	1811684	-7698019	1	7908331	-76.75676	-1.179138E-010	-0.1373919	5
	17	81	38.42213	3046537	-1.356895E+007	1	1.390676E+007	-77.34565	5.398914E-011	-0.1373829	4
	18	85	24.93351	7042396	-2.500395E+007	1	2.597678E+007	-74.27006	-5.701295E-012	-0.1373861	4
	20	93	9.93114	1.722991E+007	-5.801645E+007	1	6.052089E+007	-73.45947	-2.282958E-011	-0.1373887	4
	21	97	6.317385	2.510399E+007	-7.711364E+007	1	8.1097E+007	-71.96758	-4.976545E-011	-0.1373843	5
	22	104	3.945707	3.613697E+007	-1.073422E+008	1	1.132618E+008	-71.39409	-2.735873E-012	-0.137385	4
	23	112	2.504006	4.491258E+007	-1.591969E+008	1	1.654109E+008	-74.24519	-1.000171E-011	-0.1373751	3
	24	119	1.584686	9.105334E+007	-2.249883E+008	1	2.427148E+008	-67.9667	-3.590123E-012	-0.1373868	3
	25	129	0.999041	1.724347E+008	-2.90232E+008	1	3.37592E+008	-59.2843	-6.299706E-012	-0.1373735	3
	26	136	0.633446	1.947895E+008	-4.238324E+008	1	4.664514E+008	-65.31692	-3.273414E-012	-0.1380962	3
	27	148	0.400641	3.569328E+008	-6.054324E+008	1	7.028154E+008	-59.47852	-3.365354E-012	-0.1381009	2
	28	165	0.2520161	5.374095E+008	-8.281735E+008	1	9.87259E+008	-57.02008	-2.847911E-012	-0.138096	2
	29	208	0.1588983	7.211184E+008	-1.347069E+009	1	1.527942E+009	-61.83879	-3.519277E-012	-0.1381015	2
