EXPLAIN
TAG	EISPOT
TITLE	LABEL	Potentiostatic EIS	Test &Identifier
DATE	LABEL	2017-4-17	Date
TIME	LABEL	2:04:45	Time
NOTES	NOTES	2	&Notes...
	
	
PSTAT	PSTAT	REF600-19025	Potentiostat
VDC	POTEN	0.00000E+000	T	DC &Voltage (V)
FREQINIT	QUANT	1.00000E+005	Initial Fre&q. (Hz)
FREQFINAL	QUANT	1.00000E-001	Final Fre&q. (Hz)
PTSPERDEC	QUANT	5.00000E+000	Points/&decade
VAC	QUANT	2.00000E+001	AC &Voltage (mV rms)
AREA	QUANT	1.00000E+000	&Area (cm^2)
CONDIT	TWOPARAM	F	1.50000E+001	0.00000E+000	Conditionin&g	Time(s)	E(V)
DELAY	TWOPARAM	T	3.00000E+002	0.00000E+000	Init. De&lay	Time(s)	Stab.(mV/s)
SPEED	SELECTOR	2	&Optimize for:
ZGUESS	QUANT	1.00000E+008	E&stimated Z (ohms)
OCVCURVE	TABLE	622
	Pt	T	Vf	Vm	Ach	Over
	#	s	V vs. Ref.	V	V	bits
	0	0.25	-3.10479E-001	-3.10479E-001	4.20944E-004	...........
	1	0.5	-3.10407E-001	-3.06713E-001	4.25819E-004	...........
	2	0.75	-3.09972E-001	-3.03507E-001	4.24777E-004	...........
	3	1	-3.08718E-001	-2.97968E-001	4.27235E-004	...........
	4	1.25	-3.06265E-001	-2.90103E-001	4.23902E-004	...........
	5	1.5	-3.02397E-001	-2.83080E-001	4.16986E-004	...........
	6	1.75	-2.97053E-001	-2.72692E-001	4.23235E-004	...........
	7	2	-2.90398E-001	-2.67571E-001	4.25235E-004	...........
	8	2.25	-2.82977E-001	-2.63627E-001	4.22819E-004	...........
	9	2.5	-2.75768E-001	-2.62090E-001	4.26777E-004	...........
	10	2.75	-2.69789E-001	-2.61516E-001	4.23194E-004	...........
	11	3	-2.65579E-001	-2.61452E-001	4.20735E-004	...........
	12	3.25	-2.62988E-001	-2.56221E-001	4.24527E-004	...........
	13	3.5	-2.61243E-001	-2.54992E-001	4.25652E-004	...........
	14	3.75	-2.59506E-001	-2.53653E-001	4.28569E-004	...........
	15	4	-2.57569E-001	-2.53889E-001	4.27902E-004	...........
	16	4.25	-2.55732E-001	-2.49727E-001	4.30360E-004	...........
	17	4.5	-2.54129E-001	-2.50081E-001	4.24360E-004	...........
	18	4.75	-2.52687E-001	-2.51832E-001	4.31194E-004	...........
	19	5	-2.51503E-001	-2.47088E-001	4.30152E-004	...........
	20	5.25	-2.50492E-001	-2.42705E-001	4.23985E-004	...........
	21	5.5	-2.49116E-001	-2.43499E-001	4.22194E-004	...........
	22	5.75	-2.47187E-001	-2.43520E-001	4.30069E-004	...........
	23	6	-2.45292E-001	-2.43084E-001	4.31860E-004	...........
	24	6.25	-2.44012E-001	-2.42865E-001	4.24360E-004	...........
	25	6.5	-2.43471E-001	-2.48517E-001	4.23069E-004	...........
	26	6.75	-2.43743E-001	-2.48551E-001	4.26819E-004	...........
	27	7	-2.44722E-001	-2.41267E-001	4.22735E-004	...........
	28	7.25	-2.45477E-001	-2.39058E-001	4.24652E-004	...........
	29	7.5	-2.44925E-001	-2.40166E-001	4.22444E-004	...........
	30	7.75	-2.43165E-001	-2.37443E-001	4.30027E-004	...........
	31	8	-2.41125E-001	-2.36145E-001	4.21444E-004	...........
	32	8.25	-2.39328E-001	-2.34474E-001	4.26902E-004	...........
	33	8.5	-2.37758E-001	-2.34694E-001	4.25444E-004	...........
	34	8.75	-2.36474E-001	-2.37938E-001	4.34694E-004	...........
	35	9	-2.35774E-001	-2.35776E-001	4.29277E-004	...........
	36	9.25	-2.35460E-001	-2.21623E-001	4.26485E-004	...........
	37	9.5	-2.34122E-001	-2.13717E-001	4.26569E-004	...........
	38	9.75	-2.30389E-001	-2.18062E-001	4.26777E-004	...........
	39	10	-2.25175E-001	-2.23316E-001	4.29652E-004	...........
	40	10.25	-2.21129E-001	-2.20059E-001	4.29694E-004	...........
	41	10.5	-2.19668E-001	-2.22888E-001	4.26360E-004	...........
	42	10.75	-2.20167E-001	-2.28773E-001	4.26319E-004	...........
	43	11	-2.21803E-001	-2.32154E-001	4.26694E-004	...........
	44	11.25	-2.24404E-001	-2.35239E-001	4.28235E-004	...........
	45	11.5	-2.27525E-001	-2.26857E-001	4.25277E-004	...........
	46	11.75	-2.29890E-001	-2.25800E-001	4.23027E-004	...........
	47	12	-2.30485E-001	-2.32660E-001	4.24027E-004	...........
	48	12.25	-2.29943E-001	-2.31399E-001	4.27277E-004	...........
	49	12.5	-2.29539E-001	-2.22559E-001	4.22694E-004	...........
	50	12.75	-2.29227E-001	-2.26656E-001	4.17402E-004	...........
	51	13	-2.28307E-001	-2.24734E-001	4.29319E-004	...........
	52	13.25	-2.26998E-001	-2.25805E-001	4.26985E-004	...........
	53	13.5	-2.26002E-001	-2.26037E-001	4.25694E-004	...........
	54	13.75	-2.25615E-001	-2.27567E-001	4.28402E-004	...........
	55	14	-2.25803E-001	-2.28759E-001	4.30360E-004	...........
	56	14.25	-2.26434E-001	-2.28574E-001	4.23985E-004	...........
	57	14.5	-2.27243E-001	-2.27647E-001	4.25277E-004	...........
	58	14.75	-2.27814E-001	-2.24942E-001	4.27152E-004	...........
	59	15	-2.27469E-001	-2.09252E-001	4.30860E-004	...........
	60	15.25	-2.25292E-001	-2.12386E-001	4.24694E-004	...........
	61	15.5	-2.21347E-001	-2.19024E-001	4.28027E-004	...........
	62	15.75	-2.17645E-001	-2.20987E-001	4.32777E-004	...........
	63	16	-2.16284E-001	-2.21145E-001	4.27652E-004	...........
	64	16.25	-2.17232E-001	-2.21125E-001	4.24110E-004	...........
	65	16.5	-2.18970E-001	-2.20825E-001	4.25110E-004	...........
	66	16.75	-2.20280E-001	-2.20442E-001	4.26319E-004	...........
	67	17	-2.20836E-001	-2.20144E-001	4.33319E-004	...........
	68	17.25	-2.20827E-001	-2.19351E-001	4.29819E-004	...........
	69	17.5	-2.20509E-001	-2.18995E-001	4.24902E-004	...........
	70	17.75	-2.20052E-001	-2.18671E-001	4.28194E-004	...........
	71	18	-2.19548E-001	-2.17582E-001	4.31902E-004	...........
	72	18.25	-2.19003E-001	-2.16365E-001	4.27652E-004	...........
	73	18.5	-2.18359E-001	-2.16358E-001	4.26110E-004	...........
	74	18.75	-2.17634E-001	-2.16123E-001	4.27652E-004	...........
	75	19	-2.16970E-001	-2.15992E-001	4.24319E-004	...........
	76	19.25	-2.16485E-001	-2.15780E-001	4.22902E-004	...........
	77	19.5	-2.16173E-001	-2.15578E-001	4.26277E-004	...........
	78	19.75	-2.15959E-001	-2.15459E-001	4.24360E-004	...........
	79	20	-2.15783E-001	-2.15328E-001	4.28027E-004	...........
	80	20.25	-2.15622E-001	-2.15153E-001	4.24694E-004	...........
	81	20.5	-2.15470E-001	-2.15000E-001	4.26194E-004	...........
	82	20.75	-2.15319E-001	-2.14785E-001	4.34569E-004	...........
	83	21	-2.15150E-001	-2.14064E-001	4.27944E-004	...........
	84	21.25	-2.14914E-001	-2.13300E-001	4.23694E-004	...........
	85	21.5	-2.14551E-001	-2.12832E-001	4.29360E-004	...........
	86	21.75	-2.14049E-001	-2.12141E-001	4.26069E-004	...........
	87	22	-2.13467E-001	-2.11890E-001	4.28860E-004	...........
	88	22.25	-2.12885E-001	-2.11519E-001	4.30277E-004	...........
	89	22.5	-2.12367E-001	-2.11251E-001	4.26569E-004	...........
	90	22.75	-2.11933E-001	-2.10799E-001	4.25569E-004	...........
	91	23	-2.11564E-001	-2.10700E-001	4.26069E-004	...........
	92	23.25	-2.11222E-001	-2.09696E-001	4.28819E-004	...........
	93	23.5	-2.10865E-001	-2.09846E-001	4.27819E-004	...........
	94	23.75	-2.10489E-001	-2.09962E-001	4.29319E-004	...........
	95	24	-2.10172E-001	-2.10143E-001	4.27569E-004	...........
	96	24.25	-2.10007E-001	-2.10282E-001	4.26152E-004	...........
	97	24.5	-2.10002E-001	-2.10357E-001	4.27610E-004	...........
	98	24.75	-2.10096E-001	-2.10431E-001	4.27444E-004	...........
	99	25	-2.10218E-001	-2.10510E-001	4.23069E-004	...........
	100	25.25	-2.10328E-001	-2.10499E-001	4.27569E-004	...........
	101	25.5	-2.10412E-001	-2.10495E-001	4.25819E-004	...........
	102	25.75	-2.10465E-001	-2.10489E-001	4.22069E-004	...........
	103	26	-2.10490E-001	-2.10513E-001	4.26777E-004	...........
	104	26.25	-2.10499E-001	-2.10519E-001	4.21777E-004	...........
	105	26.5	-2.10503E-001	-2.10520E-001	4.21402E-004	...........
	106	26.75	-2.10509E-001	-2.10558E-001	4.23777E-004	...........
	107	27	-2.10507E-001	-2.09955E-001	4.21277E-004	...........
	108	27.25	-2.10461E-001	-2.10030E-001	4.25152E-004	...........
	109	27.5	-2.10350E-001	-2.10145E-001	4.21819E-004	...........
	110	27.75	-2.10223E-001	-2.10333E-001	4.25152E-004	...........
	111	28	-2.10159E-001	-2.10440E-001	4.32360E-004	...........
	112	28.25	-2.10190E-001	-2.10526E-001	4.25527E-004	...........
	113	28.5	-2.10285E-001	-2.10613E-001	4.25194E-004	...........
	114	28.75	-2.10398E-001	-2.10670E-001	4.26360E-004	...........
	115	29	-2.10502E-001	-2.10678E-001	4.27777E-004	...........
	116	29.25	-2.10584E-001	-2.10721E-001	4.29110E-004	...........
	117	29.5	-2.10643E-001	-2.10758E-001	4.32069E-004	...........
	118	29.75	-2.10685E-001	-2.10785E-001	4.32652E-004	...........
	119	30	-2.10720E-001	-2.10798E-001	4.33110E-004	...........
	120	30.25	-2.10751E-001	-2.10878E-001	4.37277E-004	...........
	121	30.5	-2.10784E-001	-2.10938E-001	4.35652E-004	...........
	122	30.75	-2.10822E-001	-2.10931E-001	4.34527E-004	...........
	123	31	-2.10865E-001	-2.10934E-001	4.32735E-004	...........
	124	31.25	-2.10903E-001	-2.11062E-001	4.36610E-004	...........
	125	31.5	-2.10941E-001	-2.11203E-001	4.31985E-004	...........
	126	31.75	-2.10994E-001	-2.11256E-001	4.30569E-004	...........
	127	32	-2.11067E-001	-2.11218E-001	4.31902E-004	...........
	128	32.25	-2.11145E-001	-2.11309E-001	4.34902E-004	...........
	129	32.5	-2.11208E-001	-2.11360E-001	4.28694E-004	...........
	130	32.75	-2.11258E-001	-2.11408E-001	4.25610E-004	...........
	131	33	-2.11305E-001	-2.11492E-001	4.28944E-004	...........
	132	33.25	-2.11358E-001	-2.11560E-001	4.28235E-004	...........
	133	33.5	-2.11416E-001	-2.11560E-001	4.33194E-004	...........
	134	33.75	-2.11475E-001	-2.11628E-001	4.34277E-004	...........
	135	34	-2.11530E-001	-2.11712E-001	4.30819E-004	...........
	136	34.25	-2.11580E-001	-2.11715E-001	4.31110E-004	...........
	137	34.5	-2.11630E-001	-2.11730E-001	4.32402E-004	...........
	138	34.75	-2.11674E-001	-2.11739E-001	4.35569E-004	...........
	139	35	-2.11707E-001	-2.11834E-001	4.31152E-004	...........
	140	35.25	-2.11736E-001	-2.11862E-001	4.31694E-004	...........
	141	35.5	-2.11770E-001	-2.11898E-001	4.30360E-004	...........
	142	35.75	-2.11812E-001	-2.11957E-001	4.29652E-004	...........
	143	36	-2.11856E-001	-2.11976E-001	4.31944E-004	...........
	144	36.25	-2.11898E-001	-2.11951E-001	4.33110E-004	...........
	145	36.5	-2.11932E-001	-2.11973E-001	4.33027E-004	...........
	146	36.75	-2.11953E-001	-2.11973E-001	4.32277E-004	...........
	147	37	-2.11964E-001	-2.11980E-001	4.32777E-004	...........
	148	37.25	-2.11970E-001	-2.12007E-001	4.36485E-004	...........
	149	37.5	-2.11980E-001	-2.12131E-001	4.32610E-004	...........
	150	37.75	-2.12003E-001	-2.12238E-001	4.29360E-004	...........
	151	38	-2.12052E-001	-2.12326E-001	4.29777E-004	...........
	152	38.25	-2.12127E-001	-2.12408E-001	4.27360E-004	...........
	153	38.5	-2.12218E-001	-2.12528E-001	4.28819E-004	...........
	154	38.75	-2.12316E-001	-2.12716E-001	4.29194E-004	...........
	155	39	-2.12427E-001	-2.12946E-001	4.27360E-004	...........
	156	39.25	-2.12555E-001	-2.12727E-001	4.39444E-004	...........
	157	39.5	-2.12681E-001	-2.12961E-001	4.31777E-004	...........
	158	39.75	-2.12782E-001	-2.13117E-001	4.36777E-004	...........
	159	40	-2.12871E-001	-2.13320E-001	4.36027E-004	...........
	160	40.25	-2.12982E-001	-2.13523E-001	4.29652E-004	...........
	161	40.5	-2.13126E-001	-2.13556E-001	4.24235E-004	...........
	162	40.75	-2.13286E-001	-2.13670E-001	4.32610E-004	...........
	163	41	-2.13434E-001	-2.13742E-001	4.31277E-004	...........
	164	41.25	-2.13557E-001	-2.13930E-001	4.30777E-004	...........
	165	41.5	-2.13667E-001	-2.14089E-001	4.27152E-004	...........
	166	41.75	-2.13786E-001	-2.14271E-001	4.26985E-004	...........
	167	42	-2.13925E-001	-2.14423E-001	4.32985E-004	...........
	168	42.25	-2.14080E-001	-2.14509E-001	4.38485E-004	...........
	169	42.5	-2.14224E-001	-2.14047E-001	4.26569E-004	...........
	170	42.75	-2.14309E-001	-2.14184E-001	4.29777E-004	...........
	171	43	-2.14303E-001	-2.13932E-001	4.31235E-004	...........
	172	43.25	-2.14229E-001	-2.14128E-001	4.32652E-004	...........
	173	43.5	-2.14143E-001	-2.14047E-001	4.30902E-004	...........
	174	43.75	-2.14073E-001	-2.13377E-001	4.34985E-004	...........
	175	44	-2.13984E-001	-2.13535E-001	4.31777E-004	...........
	176	44.25	-2.13849E-001	-2.13755E-001	4.34610E-004	...........
	177	44.5	-2.13720E-001	-2.13975E-001	4.33319E-004	...........
	178	44.75	-2.13686E-001	-2.14146E-001	4.34069E-004	...........
	179	45	-2.13765E-001	-2.14113E-001	4.30319E-004	...........
	180	45.25	-2.13903E-001	-2.14313E-001	4.33444E-004	...........
	181	45.5	-2.14043E-001	-2.14358E-001	4.34027E-004	...........
	182	45.75	-2.14159E-001	-2.14238E-001	4.31319E-004	...........
	183	46	-2.14244E-001	-2.14467E-001	4.34319E-004	...........
	184	46.25	-2.14307E-001	-2.14737E-001	4.28819E-004	...........
	185	46.5	-2.14387E-001	-2.14972E-001	4.26860E-004	...........
	186	46.75	-2.14522E-001	-2.15149E-001	4.31152E-004	...........
	187	47	-2.14708E-001	-2.15318E-001	4.30444E-004	...........
	188	47.25	-2.14914E-001	-2.15468E-001	4.31277E-004	...........
	189	47.5	-2.15113E-001	-2.15687E-001	4.21944E-004	...........
	190	47.75	-2.15300E-001	-2.15859E-001	4.34735E-004	...........
	191	48	-2.15480E-001	-2.16035E-001	4.32027E-004	...........
	192	48.25	-2.15661E-001	-2.16199E-001	4.33402E-004	...........
	193	48.5	-2.15839E-001	-2.16334E-001	4.31527E-004	...........
	194	48.75	-2.16009E-001	-2.16392E-001	4.27444E-004	...........
	195	49	-2.16157E-001	-2.16295E-001	4.32027E-004	...........
	196	49.25	-2.16265E-001	-2.16446E-001	4.32152E-004	...........
	197	49.5	-2.16334E-001	-2.16554E-001	4.28152E-004	...........
	198	49.75	-2.16389E-001	-2.16664E-001	4.30402E-004	...........
	199	50	-2.16455E-001	-2.16657E-001	4.35860E-004	...........
	200	50.25	-2.16532E-001	-2.16633E-001	4.33652E-004	...........
	201	50.5	-2.16597E-001	-2.16724E-001	4.34194E-004	...........
	202	50.75	-2.16643E-001	-2.16841E-001	4.34194E-004	...........
	203	51	-2.16687E-001	-2.16937E-001	4.32527E-004	...........
	204	51.25	-2.16748E-001	-2.17029E-001	4.28735E-004	...........
	205	51.5	-2.16829E-001	-2.17057E-001	4.33069E-004	...........
	206	51.75	-2.16915E-001	-2.17148E-001	4.27777E-004	...........
	207	52	-2.16992E-001	-2.17025E-001	4.30485E-004	...........
	208	52.25	-2.16949E-001	-2.11953E-001	4.31069E-004	...........
	209	52.5	-2.16462E-001	-2.11759E-001	4.30360E-004	...........
	210	52.75	-2.15323E-001	-2.12041E-001	4.24985E-004	...........
	211	53	-2.13891E-001	-2.12428E-001	4.23235E-004	...........
	212	53.25	-2.12797E-001	-2.12684E-001	4.22985E-004	...........
	213	53.5	-2.12324E-001	-2.12991E-001	4.28319E-004	...........
	214	53.75	-2.12341E-001	-2.13300E-001	4.28569E-004	...........
	215	54	-2.12597E-001	-2.13571E-001	4.27444E-004	...........
	216	54.25	-2.12924E-001	-2.13900E-001	4.30777E-004	...........
	217	54.5	-2.13250E-001	-2.14213E-001	4.29402E-004	...........
	218	54.75	-2.13564E-001	-2.14443E-001	4.29652E-004	...........
	219	55	-2.13865E-001	-2.14668E-001	4.30027E-004	...........
	220	55.25	-2.14139E-001	-2.14415E-001	4.27819E-004	...........
	221	55.5	-2.14352E-001	-2.14676E-001	4.27069E-004	...........
	222	55.75	-2.14491E-001	-2.14903E-001	4.28944E-004	...........
	223	56	-2.14595E-001	-2.15088E-001	4.30902E-004	...........
	224	56.25	-2.14719E-001	-2.15313E-001	4.29735E-004	...........
	225	56.5	-2.14884E-001	-2.15532E-001	4.33527E-004	...........
	226	56.75	-2.15079E-001	-2.15682E-001	4.25444E-004	...........
	227	57	-2.15286E-001	-2.15926E-001	4.28152E-004	...........
	228	57.25	-2.15485E-001	-2.15777E-001	4.29069E-004	...........
	229	57.5	-2.15652E-001	-2.15825E-001	4.26569E-004	...........
	230	57.75	-2.15762E-001	-2.15894E-001	4.28569E-004	...........
	231	58	-2.15802E-001	-2.14948E-001	4.35152E-004	...........
	232	58.25	-2.15732E-001	-2.14609E-001	4.28902E-004	...........
	233	58.5	-2.15507E-001	-2.14447E-001	4.29360E-004	...........
	234	58.75	-2.15169E-001	-2.14525E-001	4.29652E-004	...........
	235	59	-2.14842E-001	-2.14522E-001	4.31860E-004	...........
	236	59.25	-2.14630E-001	-2.14746E-001	4.39985E-004	...........
	237	59.5	-2.14554E-001	-2.14726E-001	4.35360E-004	...........
	238	59.75	-2.14581E-001	-2.14926E-001	4.34277E-004	...........
	239	60	-2.14668E-001	-2.15183E-001	4.27694E-004	...........
	240	60.25	-2.14795E-001	-2.15426E-001	4.34860E-004	...........
	241	60.5	-2.14963E-001	-2.15658E-001	4.28319E-004	...........
	242	60.75	-2.15169E-001	-2.15921E-001	4.31985E-004	...........
	243	61	-2.15399E-001	-2.16045E-001	4.32819E-004	...........
	244	61.25	-2.15629E-001	-2.16163E-001	4.32902E-004	...........
	245	61.5	-2.15837E-001	-2.16305E-001	4.31652E-004	...........
	246	61.75	-2.16013E-001	-2.16497E-001	4.34110E-004	...........
	247	62	-2.16167E-001	-2.16571E-001	4.30194E-004	...........
	248	62.25	-2.16305E-001	-2.16420E-001	4.27777E-004	...........
	249	62.5	-2.16415E-001	-2.16700E-001	4.28694E-004	...........
	250	62.75	-2.16498E-001	-2.16963E-001	4.31235E-004	...........
	251	63	-2.16592E-001	-2.17110E-001	4.33194E-004	...........
	252	63.25	-2.16727E-001	-2.17244E-001	4.28485E-004	...........
	253	63.5	-2.16896E-001	-2.17387E-001	4.28277E-004	...........
	254	63.75	-2.17064E-001	-2.17341E-001	4.25860E-004	...........
	255	64	-2.17192E-001	-2.16752E-001	4.27652E-004	...........
	256	64.25	-2.17223E-001	-2.16695E-001	4.22902E-004	...........
	257	64.5	-2.17135E-001	-2.16964E-001	4.21235E-004	...........
	258	64.75	-2.17003E-001	-2.17236E-001	4.24444E-004	...........
	259	65	-2.16939E-001	-2.17183E-001	4.25319E-004	...........
	260	65.25	-2.16986E-001	-2.17450E-001	4.30902E-004	...........
	261	65.5	-2.17105E-001	-2.17597E-001	4.28027E-004	...........
	262	65.75	-2.17253E-001	-2.17760E-001	4.30360E-004	...........
	263	66	-2.17415E-001	-2.17951E-001	4.29152E-004	...........
	264	66.25	-2.17582E-001	-2.18044E-001	4.23527E-004	...........
	265	66.5	-2.17745E-001	-2.18103E-001	4.26152E-004	...........
	266	66.75	-2.17886E-001	-2.17988E-001	4.25610E-004	...........
	267	67	-2.17983E-001	-2.18020E-001	4.26152E-004	...........
	268	67.25	-2.18028E-001	-2.18032E-001	4.22152E-004	...........
	269	67.5	-2.18038E-001	-2.18108E-001	4.26152E-004	...........
	270	67.75	-2.18028E-001	-2.17420E-001	4.33360E-004	...........
	271	68	-2.17980E-001	-2.17747E-001	4.24610E-004	...........
	272	68.25	-2.17887E-001	-2.18009E-001	4.30944E-004	...........
	273	68.5	-2.17818E-001	-2.18293E-001	4.32277E-004	...........
	274	68.75	-2.17856E-001	-2.18553E-001	4.25944E-004	...........
	275	69	-2.18014E-001	-2.18775E-001	4.31652E-004	...........
	276	69.25	-2.18245E-001	-2.19003E-001	4.23027E-004	...........
	277	69.5	-2.18498E-001	-2.19184E-001	4.25527E-004	...........
	278	69.75	-2.18737E-001	-2.19162E-001	4.26735E-004	...........
	279	70	-2.18938E-001	-2.19330E-001	4.28319E-004	...........
	280	70.25	-2.19093E-001	-2.19484E-001	4.23235E-004	...........
	281	70.5	-2.19216E-001	-2.19514E-001	4.31069E-004	...........
	282	70.75	-2.19328E-001	-2.19658E-001	4.33402E-004	...........
	283	71	-2.19435E-001	-2.19810E-001	4.29985E-004	...........
	284	71.25	-2.19532E-001	-2.19261E-001	4.29735E-004	...........
	285	71.5	-2.19585E-001	-2.19463E-001	4.29735E-004	...........
	286	71.75	-2.19562E-001	-2.19135E-001	4.29944E-004	...........
	287	72	-2.19479E-001	-2.19391E-001	4.29860E-004	...........
	288	72.25	-2.19393E-001	-2.19612E-001	4.21402E-004	...........
	289	72.5	-2.19369E-001	-2.19794E-001	4.28944E-004	...........
	290	72.75	-2.19437E-001	-2.19981E-001	4.30902E-004	...........
	291	73	-2.19582E-001	-2.20134E-001	4.27444E-004	...........
	292	73.25	-2.19761E-001	-2.20323E-001	4.30319E-004	...........
	293	73.5	-2.19945E-001	-2.20404E-001	4.29110E-004	...........
	294	73.75	-2.20118E-001	-2.20598E-001	4.26694E-004	...........
	295	74	-2.20276E-001	-2.20670E-001	4.28319E-004	...........
	296	74.25	-2.20419E-001	-2.20816E-001	4.27152E-004	...........
	297	74.5	-2.20505E-001	-2.18432E-001	4.28194E-004	...........
	298	74.75	-2.20247E-001	-2.11415E-001	4.28319E-004	...........
	299	75	-2.19057E-001	-2.08765E-001	4.28652E-004	...........
	300	75.25	-2.16618E-001	-2.07963E-001	4.28235E-004	...........
	301	75.5	-2.13473E-001	-2.06947E-001	4.28402E-004	...........
	302	75.75	-2.10593E-001	-2.06331E-001	4.30527E-004	...........
	303	76	-2.08522E-001	-2.05802E-001	4.24152E-004	...........
	304	76.25	-2.07216E-001	-2.05263E-001	4.25610E-004	...........
	305	76.5	-2.06400E-001	-2.05138E-001	4.23694E-004	...........
	306	76.75	-2.05862E-001	-2.05624E-001	4.23610E-004	...........
	307	77	-2.05557E-001	-2.06587E-001	4.29652E-004	...........
	308	77.25	-2.05557E-001	-2.07492E-001	4.23652E-004	...........
	309	77.5	-2.05899E-001	-2.07844E-001	4.29027E-004	...........
	310	77.75	-2.06493E-001	-2.08637E-001	4.31277E-004	...........
	311	78	-2.07188E-001	-2.09388E-001	4.25694E-004	...........
	312	78.25	-2.07896E-001	-2.10115E-001	4.28402E-004	...........
	313	78.5	-2.08606E-001	-2.10832E-001	4.24694E-004	...........
	314	78.75	-2.09323E-001	-2.11468E-001	4.31110E-004	...........
	315	79	-2.10037E-001	-2.12086E-001	4.30194E-004	...........
	316	79.25	-2.10730E-001	-2.12648E-001	4.29610E-004	...........
	317	79.5	-2.11386E-001	-2.13117E-001	4.26110E-004	...........
	318	79.75	-2.11986E-001	-2.13149E-001	4.28402E-004	...........
	319	80	-2.12495E-001	-2.13310E-001	4.25402E-004	...........
	320	80.25	-2.12883E-001	-2.13828E-001	4.23569E-004	...........
	321	80.5	-2.13174E-001	-2.13820E-001	4.19152E-004	...........
	322	80.75	-2.13415E-001	-2.13742E-001	4.24819E-004	...........
	323	81	-2.13574E-001	-2.12086E-001	4.28485E-004	...........
	324	81.25	-2.13505E-001	-2.11143E-001	4.25985E-004	...........
	325	81.5	-2.13095E-001	-2.11537E-001	4.26069E-004	...........
	326	81.75	-2.12455E-001	-2.10890E-001	4.28402E-004	...........
	327	82	-2.11843E-001	-2.11226E-001	4.26985E-004	...........
	328	82.25	-2.11437E-001	-2.11912E-001	4.32194E-004	...........
	329	82.5	-2.11281E-001	-2.11080E-001	4.31235E-004	...........
	330	82.75	-2.11228E-001	-2.07600E-001	4.30944E-004	...........
	331	83	-2.10883E-001	-2.06410E-001	4.29694E-004	...........
	332	83.25	-2.09930E-001	-2.05526E-001	4.27569E-004	...........
	333	83.5	-2.08524E-001	-2.05364E-001	4.22527E-004	...........
	334	83.75	-2.07138E-001	-2.05306E-001	4.34194E-004	...........
	335	84	-2.06123E-001	-2.04941E-001	4.31277E-004	...........
	336	84.25	-2.05535E-001	-2.05425E-001	4.26235E-004	...........
	337	84.5	-2.05269E-001	-2.05388E-001	4.27027E-004	...........
	338	84.75	-2.05210E-001	-2.05387E-001	4.24694E-004	...........
	339	85	-2.05245E-001	-2.04703E-001	4.22902E-004	...........
	340	85.25	-2.05238E-001	-2.04367E-001	4.21902E-004	...........
	341	85.5	-2.05106E-001	-2.04832E-001	4.31069E-004	...........
	342	85.75	-2.04919E-001	-2.05522E-001	4.35277E-004	...........
	343	86	-2.04864E-001	-2.06391E-001	4.30110E-004	...........
	344	86.25	-2.05089E-001	-2.07239E-001	4.30902E-004	...........
	345	86.5	-2.05604E-001	-2.08083E-001	4.35819E-004	...........
	346	86.75	-2.06334E-001	-2.09483E-001	4.28985E-004	...........
	347	87	-2.07207E-001	-2.10151E-001	4.23110E-004	...........
	348	87.25	-2.08144E-001	-2.09861E-001	4.29360E-004	...........
	349	87.5	-2.08995E-001	-2.10288E-001	4.28319E-004	...........
	350	87.75	-2.09623E-001	-2.10858E-001	4.29319E-004	...........
	351	88	-2.10056E-001	-2.11288E-001	4.32485E-004	...........
	352	88.25	-2.10433E-001	-2.12157E-001	4.25110E-004	...........
	353	88.5	-2.10874E-001	-2.12903E-001	4.24319E-004	...........
	354	88.75	-2.11427E-001	-2.13415E-001	4.27485E-004	...........
	355	89	-2.12070E-001	-2.14254E-001	4.29360E-004	...........
	356	89.25	-2.12748E-001	-2.14517E-001	4.27652E-004	...........
	357	89.5	-2.13401E-001	-2.14943E-001	4.24694E-004	...........
	358	89.75	-2.13983E-001	-2.15307E-001	4.21652E-004	...........
	359	90	-2.14477E-001	-2.15725E-001	4.33735E-004	...........
	360	90.25	-2.14896E-001	-2.15598E-001	4.33527E-004	...........
	361	90.5	-2.15239E-001	-2.15832E-001	4.28152E-004	...........
	362	90.75	-2.15502E-001	-2.16318E-001	4.28485E-004	...........
	363	91	-2.15727E-001	-2.16916E-001	4.26360E-004	...........
	364	91.25	-2.16002E-001	-2.17386E-001	4.20319E-004	...........
	365	91.5	-2.16376E-001	-2.17803E-001	4.24402E-004	...........
	366	91.75	-2.16825E-001	-2.18238E-001	4.30777E-004	...........
	367	92	-2.17296E-001	-2.18651E-001	4.27527E-004	...........
	368	92.25	-2.17755E-001	-2.19043E-001	4.27277E-004	...........
	369	92.5	-2.18191E-001	-2.19453E-001	4.34152E-004	...........
	370	92.75	-2.18609E-001	-2.19810E-001	4.25985E-004	...........
	371	93	-2.19010E-001	-2.20096E-001	4.25485E-004	...........
	372	93.25	-2.19390E-001	-2.20401E-001	4.29902E-004	...........
	373	93.5	-2.19743E-001	-2.20695E-001	4.27319E-004	...........
	374	93.75	-2.20069E-001	-2.20990E-001	4.32360E-004	...........
	375	94	-2.20371E-001	-2.21045E-001	4.31319E-004	...........
	376	94.25	-2.20638E-001	-2.20946E-001	4.30610E-004	...........
	377	94.5	-2.20837E-001	-2.21023E-001	4.31069E-004	...........
	378	94.75	-2.20955E-001	-2.21286E-001	4.28069E-004	...........
	379	95	-2.21035E-001	-2.21579E-001	4.29777E-004	...........
	380	95.25	-2.21145E-001	-2.21904E-001	4.34819E-004	...........
	381	95.5	-2.21327E-001	-2.22193E-001	4.34110E-004	...........
	382	95.75	-2.21573E-001	-2.22418E-001	4.32360E-004	...........
	383	96	-2.21852E-001	-2.22642E-001	4.31235E-004	...........
	384	96.25	-2.22129E-001	-2.22884E-001	4.32444E-004	...........
	385	96.5	-2.22387E-001	-2.23125E-001	4.32777E-004	...........
	386	96.75	-2.22632E-001	-2.23360E-001	4.38527E-004	...........
	387	97	-2.22852E-001	-2.22678E-001	4.37985E-004	...........
	388	97.25	-2.22917E-001	-2.18732E-001	4.37610E-004	...........
	389	97.5	-2.22435E-001	-2.13674E-001	4.34194E-004	...........
	390	97.75	-2.20924E-001	-2.11571E-001	4.37819E-004	...........
	391	98	-2.18367E-001	-2.10400E-001	4.27902E-004	...........
	392	98.25	-2.15410E-001	-2.09590E-001	4.26944E-004	...........
	393	98.5	-2.12832E-001	-2.08983E-001	4.31819E-004	...........
	394	98.75	-2.10994E-001	-2.08570E-001	4.28444E-004	...........
	395	99	-2.09827E-001	-2.08290E-001	4.30235E-004	...........
	396	99.25	-2.09110E-001	-2.08041E-001	4.27735E-004	...........
	397	99.5	-2.08648E-001	-2.07780E-001	4.24860E-004	...........
	398	99.75	-2.08318E-001	-2.07545E-001	4.29819E-004	...........
	399	100	-2.08048E-001	-2.07335E-001	4.30069E-004	...........
	400	100.25	-2.07803E-001	-2.07076E-001	4.30527E-004	...........
	401	100.5	-2.07556E-001	-2.06183E-001	4.25527E-004	...........
	402	100.75	-2.07263E-001	-2.06285E-001	4.25527E-004	...........
	403	101	-2.06917E-001	-2.06145E-001	4.28819E-004	...........
	404	101.25	-2.06583E-001	-2.05993E-001	4.25694E-004	...........
	405	101.5	-2.06324E-001	-2.05837E-001	4.32694E-004	...........
	406	101.75	-2.06143E-001	-2.05998E-001	4.25402E-004	...........
	407	102	-2.06041E-001	-2.06816E-001	4.23610E-004	...........
	408	102.25	-2.06084E-001	-2.07785E-001	4.24902E-004	...........
	409	102.5	-2.06368E-001	-2.08633E-001	4.29444E-004	...........
	410	102.75	-2.06926E-001	-2.09611E-001	4.30610E-004	...........
	411	103	-2.07694E-001	-2.10550E-001	4.14986E-004	...........
	412	103.25	-2.08580E-001	-2.11454E-001	4.28110E-004	...........
	413	103.5	-2.09509E-001	-2.12245E-001	4.27610E-004	...........
	414	103.75	-2.10430E-001	-2.12894E-001	4.22819E-004	...........
	415	104	-2.11299E-001	-2.13489E-001	4.27652E-004	...........
	416	104.25	-2.12090E-001	-2.14184E-001	4.29444E-004	...........
	417	104.5	-2.12806E-001	-2.14794E-001	4.23110E-004	...........
	418	104.75	-2.13473E-001	-2.15431E-001	4.30152E-004	...........
	419	105	-2.14117E-001	-2.16094E-001	4.29027E-004	...........
	420	105.25	-2.14755E-001	-2.16722E-001	4.35985E-004	...........
	421	105.5	-2.15392E-001	-2.17273E-001	4.31402E-004	...........
	422	105.75	-2.16025E-001	-2.18020E-001	4.30610E-004	...........
	423	106	-2.16651E-001	-2.18409E-001	4.31610E-004	...........
	424	106.25	-2.17261E-001	-2.18821E-001	4.28944E-004	...........
	425	106.5	-2.17823E-001	-2.18981E-001	4.26319E-004	...........
	426	106.75	-2.18305E-001	-2.19476E-001	4.23902E-004	...........
	427	107	-2.18673E-001	-2.17936E-001	4.24069E-004	...........
	428	107.25	-2.18739E-001	-2.12568E-001	4.25527E-004	...........
	429	107.5	-2.18091E-001	-2.11831E-001	4.30652E-004	...........
	430	107.75	-2.16512E-001	-2.09891E-001	4.32569E-004	...........
	431	108	-2.14306E-001	-2.05763E-001	4.33610E-004	...........
	432	108.25	-2.11883E-001	-2.05227E-001	4.33735E-004	...........
	433	108.5	-2.09521E-001	-2.06665E-001	4.28402E-004	...........
	434	108.75	-2.07661E-001	-2.08437E-001	4.33777E-004	...........
	435	109	-2.06786E-001	-2.08473E-001	4.29319E-004	...........
	436	109.25	-2.06926E-001	-2.09901E-001	4.32027E-004	...........
	437	109.5	-2.07654E-001	-2.09493E-001	4.32402E-004	...........
	438	109.75	-2.08529E-001	-2.11683E-001	4.30485E-004	...........
	439	110	-2.09404E-001	-2.13482E-001	4.26319E-004	...........
	440	110.25	-2.10415E-001	-2.14905E-001	4.26735E-004	...........
	441	110.5	-2.11662E-001	-2.14911E-001	4.24944E-004	...........
	442	110.75	-2.12877E-001	-2.10223E-001	4.22610E-004	...........
	443	111	-2.13490E-001	-2.11910E-001	4.23819E-004	...........
	444	111.25	-2.13251E-001	-2.12294E-001	4.27694E-004	...........
	445	111.5	-2.12607E-001	-2.11667E-001	4.28402E-004	...........
	446	111.75	-2.12136E-001	-2.12903E-001	4.28610E-004	...........
	447	112	-2.12045E-001	-2.14052E-001	4.25402E-004	...........
	448	112.25	-2.12346E-001	-2.15131E-001	4.32069E-004	...........
	449	112.5	-2.13006E-001	-2.15936E-001	4.28902E-004	...........
	450	112.75	-2.13901E-001	-2.16653E-001	4.29902E-004	...........
	451	113	-2.14856E-001	-2.17276E-001	4.27360E-004	...........
	452	113.25	-2.15748E-001	-2.18095E-001	4.22860E-004	...........
	453	113.5	-2.16548E-001	-2.18749E-001	4.23694E-004	...........
	454	113.75	-2.17285E-001	-2.19289E-001	4.28777E-004	...........
	455	114	-2.17981E-001	-2.19943E-001	4.30235E-004	...........
	456	114.25	-2.18641E-001	-2.20567E-001	4.26235E-004	...........
	457	114.5	-2.19272E-001	-2.21087E-001	4.21944E-004	...........
	458	114.75	-2.19884E-001	-2.21624E-001	4.27402E-004	...........
	459	115	-2.20471E-001	-2.22076E-001	4.29985E-004	...........
	460	115.25	-2.21024E-001	-2.22481E-001	4.26652E-004	...........
	461	115.5	-2.21536E-001	-2.22846E-001	4.20902E-004	...........
	462	115.75	-2.22006E-001	-2.23470E-001	4.20277E-004	...........
	463	116	-2.22454E-001	-2.23807E-001	4.27944E-004	...........
	464	116.25	-2.22900E-001	-2.24288E-001	4.25777E-004	...........
	465	116.5	-2.23350E-001	-2.24686E-001	4.26735E-004	...........
	466	116.75	-2.23795E-001	-2.25102E-001	4.26319E-004	...........
	467	117	-2.24229E-001	-2.25480E-001	4.32694E-004	...........
	468	117.25	-2.24648E-001	-2.25846E-001	4.22819E-004	...........
	469	117.5	-2.25052E-001	-2.26218E-001	4.29985E-004	...........
	470	117.75	-2.25438E-001	-2.26425E-001	4.27860E-004	...........
	471	118	-2.25796E-001	-2.26623E-001	4.27985E-004	...........
	472	118.25	-2.26113E-001	-2.26917E-001	4.30069E-004	...........
	473	118.5	-2.26389E-001	-2.27136E-001	4.25485E-004	...........
	474	118.75	-2.26643E-001	-2.27490E-001	4.27402E-004	...........
	475	119	-2.26895E-001	-2.27677E-001	4.25569E-004	...........
	476	119.25	-2.27152E-001	-2.27864E-001	4.28402E-004	...........
	477	119.5	-2.27407E-001	-2.28165E-001	4.29194E-004	...........
	478	119.75	-2.27649E-001	-2.28338E-001	4.26360E-004	...........
	479	120	-2.27881E-001	-2.28473E-001	4.22194E-004	...........
	480	120.25	-2.28098E-001	-2.28631E-001	4.25569E-004	...........
	481	120.5	-2.28291E-001	-2.28742E-001	4.26444E-004	...........
	482	120.75	-2.28461E-001	-2.29041E-001	4.28652E-004	...........
	483	121	-2.28623E-001	-2.29120E-001	4.35277E-004	...........
	484	121.25	-2.28788E-001	-2.29240E-001	4.24069E-004	...........
	485	121.5	-2.28949E-001	-2.29265E-001	4.24527E-004	...........
	486	121.75	-2.29090E-001	-2.29474E-001	4.26777E-004	...........
	487	122	-2.29211E-001	-2.29656E-001	4.30527E-004	...........
	488	122.25	-2.29333E-001	-2.29797E-001	4.33485E-004	...........
	489	122.5	-2.29475E-001	-2.30095E-001	4.34194E-004	...........
	490	122.75	-2.29646E-001	-2.30447E-001	4.25360E-004	...........
	491	123	-2.29857E-001	-2.30761E-001	4.28902E-004	...........
	492	123.25	-2.30115E-001	-2.30989E-001	4.27652E-004	...........
	493	123.5	-2.30400E-001	-2.31203E-001	4.29152E-004	...........
	494	123.75	-2.30684E-001	-2.31423E-001	4.30027E-004	...........
	495	124	-2.30945E-001	-2.31609E-001	4.29027E-004	...........
	496	124.25	-2.31180E-001	-2.31786E-001	4.26735E-004	...........
	497	124.5	-2.31392E-001	-2.31994E-001	4.27735E-004	...........
	498	124.75	-2.31585E-001	-2.31848E-001	4.32902E-004	...........
	499	125	-2.31742E-001	-2.31936E-001	4.27194E-004	...........
	500	125.25	-2.31849E-001	-2.32056E-001	4.29444E-004	...........
	501	125.5	-2.31916E-001	-2.32137E-001	4.30860E-004	...........
	502	125.75	-2.31977E-001	-2.32328E-001	4.32694E-004	...........
	503	126	-2.32058E-001	-2.32409E-001	4.29569E-004	...........
	504	126.25	-2.32169E-001	-2.32830E-001	4.32152E-004	...........
	505	126.5	-2.32322E-001	-2.33159E-001	4.34610E-004	...........
	506	126.75	-2.32533E-001	-2.33431E-001	4.28277E-004	...........
	507	127	-2.32796E-001	-2.33519E-001	4.33735E-004	...........
	508	127.25	-2.33069E-001	-2.33564E-001	4.31652E-004	...........
	509	127.5	-2.33297E-001	-2.33590E-001	4.29319E-004	...........
	510	127.75	-2.33452E-001	-2.33550E-001	4.31610E-004	...........
	511	128	-2.33536E-001	-2.33610E-001	4.27527E-004	...........
	512	128.25	-2.33574E-001	-2.33702E-001	4.33235E-004	...........
	513	128.5	-2.33599E-001	-2.33729E-001	4.31235E-004	...........
	514	128.75	-2.33632E-001	-2.33756E-001	4.30652E-004	...........
	515	129	-2.33675E-001	-2.33859E-001	4.28860E-004	...........
	516	129.25	-2.33725E-001	-2.33939E-001	4.28444E-004	...........
	517	129.5	-2.33784E-001	-2.34041E-001	4.31402E-004	...........
	518	129.75	-2.33856E-001	-2.34104E-001	4.30277E-004	...........
	519	130	-2.33937E-001	-2.34235E-001	4.30652E-004	...........
	520	130.25	-2.34025E-001	-2.34333E-001	4.30944E-004	...........
	521	130.5	-2.34120E-001	-2.34427E-001	4.28277E-004	...........
	522	130.75	-2.34215E-001	-2.34318E-001	4.34819E-004	...........
	523	131	-2.34291E-001	-2.34207E-001	4.31027E-004	...........
	524	131.25	-2.34289E-001	-2.32451E-001	4.32444E-004	...........
	525	131.5	-2.34042E-001	-2.29498E-001	4.28944E-004	...........
	526	131.75	-2.33309E-001	-2.28831E-001	4.33777E-004	...........
	527	132	-2.32064E-001	-2.28497E-001	4.28402E-004	...........
	528	132.25	-2.30612E-001	-2.26455E-001	4.26360E-004	...........
	529	132.5	-2.29232E-001	-2.24467E-001	4.28235E-004	...........
	530	132.75	-2.27925E-001	-2.25507E-001	4.30527E-004	...........
	531	133	-2.26738E-001	-2.26081E-001	4.28860E-004	...........
	532	133.25	-2.25952E-001	-2.26892E-001	4.25527E-004	...........
	533	133.5	-2.25767E-001	-2.27340E-001	4.31944E-004	...........
	534	133.75	-2.26059E-001	-2.26829E-001	4.28902E-004	...........
	535	134	-2.26543E-001	-2.29074E-001	4.36444E-004	...........
	536	134.25	-2.27093E-001	-2.29932E-001	4.26652E-004	...........
	537	134.5	-2.27794E-001	-2.30571E-001	4.32569E-004	...........
	538	134.75	-2.28663E-001	-2.30851E-001	4.30110E-004	...........
	539	135	-2.29542E-001	-2.31369E-001	4.25610E-004	...........
	540	135.25	-2.30279E-001	-2.31785E-001	4.28194E-004	...........
	541	135.5	-2.30855E-001	-2.32239E-001	4.30610E-004	...........
	542	135.75	-2.31332E-001	-2.32562E-001	4.30694E-004	...........
	543	136	-2.31758E-001	-2.32844E-001	4.29819E-004	...........
	544	136.25	-2.32144E-001	-2.32950E-001	4.29652E-004	...........
	545	136.5	-2.32477E-001	-2.33215E-001	4.32235E-004	...........
	546	136.75	-2.32750E-001	-2.33414E-001	4.33694E-004	...........
	547	137	-2.32982E-001	-2.33672E-001	4.31069E-004	...........
	548	137.25	-2.33200E-001	-2.33954E-001	4.25194E-004	...........
	549	137.5	-2.33426E-001	-2.34158E-001	4.23110E-004	...........
	550	137.75	-2.33661E-001	-2.34270E-001	4.25610E-004	...........
	551	138	-2.33889E-001	-2.34446E-001	4.22194E-004	...........
	552	138.25	-2.34093E-001	-2.34615E-001	4.19610E-004	...........
	553	138.5	-2.34273E-001	-2.34803E-001	4.25860E-004	...........
	554	138.75	-2.34443E-001	-2.35017E-001	4.34444E-004	...........
	555	139	-2.34616E-001	-2.35144E-001	4.28402E-004	...........
	556	139.25	-2.34792E-001	-2.35258E-001	4.34610E-004	...........
	557	139.5	-2.34962E-001	-2.35386E-001	4.28360E-004	...........
	558	139.75	-2.35115E-001	-2.35545E-001	4.25860E-004	...........
	559	140	-2.35255E-001	-2.35709E-001	4.23610E-004	...........
	560	140.25	-2.35394E-001	-2.35817E-001	4.29319E-004	...........
	561	140.5	-2.35536E-001	-2.36014E-001	4.29152E-004	...........
	562	140.75	-2.35683E-001	-2.36178E-001	4.28860E-004	...........
	563	141	-2.35837E-001	-2.36368E-001	4.26319E-004	...........
	564	141.25	-2.36000E-001	-2.36548E-001	4.28569E-004	...........
	565	141.5	-2.36173E-001	-2.36736E-001	4.26152E-004	...........
	566	141.75	-2.36352E-001	-2.36885E-001	4.31027E-004	...........
	567	142	-2.36530E-001	-2.37005E-001	4.32985E-004	...........
	568	142.25	-2.36700E-001	-2.37124E-001	4.29694E-004	...........
	569	142.5	-2.36852E-001	-2.37227E-001	4.27777E-004	...........
	570	142.75	-2.36988E-001	-2.37342E-001	4.32485E-004	...........
	571	143	-2.37109E-001	-2.37439E-001	4.29235E-004	...........
	572	143.25	-2.37222E-001	-2.37566E-001	4.30069E-004	...........
	573	143.5	-2.37332E-001	-2.37693E-001	4.29527E-004	...........
	574	143.75	-2.37442E-001	-2.37728E-001	4.26652E-004	...........
	575	144	-2.37550E-001	-2.37846E-001	4.30194E-004	...........
	576	144.25	-2.37653E-001	-2.38017E-001	4.27277E-004	...........
	577	144.5	-2.37755E-001	-2.38132E-001	4.27735E-004	...........
	578	144.75	-2.37868E-001	-2.38294E-001	4.24194E-004	...........
	579	145	-2.37998E-001	-2.38592E-001	4.29860E-004	...........
	580	145.25	-2.38156E-001	-2.38945E-001	4.27944E-004	...........
	581	145.5	-2.38357E-001	-2.39221E-001	4.32860E-004	...........
	582	145.75	-2.38607E-001	-2.39460E-001	4.27985E-004	...........
	583	146	-2.38883E-001	-2.39522E-001	4.34152E-004	...........
	584	146.25	-2.39139E-001	-2.39482E-001	4.29610E-004	...........
	585	146.5	-2.39331E-001	-2.39443E-001	4.26027E-004	...........
	586	146.75	-2.39438E-001	-2.39399E-001	4.34569E-004	...........
	587	147	-2.39468E-001	-2.39390E-001	4.34152E-004	...........
	588	147.25	-2.39454E-001	-2.39386E-001	4.33902E-004	...........
	589	147.5	-2.39421E-001	-2.39129E-001	4.29944E-004	...........
	590	147.75	-2.39369E-001	-2.38904E-001	4.30194E-004	...........
	591	148	-2.39276E-001	-2.38875E-001	4.32319E-004	...........
	592	148.25	-2.39149E-001	-2.38943E-001	4.33485E-004	...........
	593	148.5	-2.39028E-001	-2.38923E-001	4.29860E-004	...........
	594	148.75	-2.38951E-001	-2.38886E-001	4.30527E-004	...........
	595	149	-2.38916E-001	-2.38832E-001	4.27819E-004	...........
	596	149.25	-2.38897E-001	-2.38785E-001	4.29277E-004	...........
	597	149.5	-2.38874E-001	-2.38861E-001	4.24985E-004	...........
	598	149.75	-2.38852E-001	-2.38948E-001	4.28735E-004	...........
	599	150	-2.38851E-001	-2.39040E-001	4.28152E-004	...........
	600	150.25	-2.38885E-001	-2.39176E-001	4.25527E-004	...........
	601	150.5	-2.38954E-001	-2.39311E-001	4.24360E-004	...........
	602	150.75	-2.39051E-001	-2.39417E-001	4.24527E-004	...........
	603	151	-2.39165E-001	-2.39495E-001	4.31277E-004	...........
	604	151.25	-2.39282E-001	-2.39596E-001	4.30277E-004	...........
	605	151.5	-2.39390E-001	-2.39593E-001	4.29860E-004	...........
	606	151.75	-2.39480E-001	-2.39628E-001	4.28444E-004	...........
	607	152	-2.39549E-001	-2.39695E-001	4.27985E-004	...........
	608	152.25	-2.39599E-001	-2.39750E-001	4.28027E-004	...........
	609	152.5	-2.39643E-001	-2.39744E-001	4.32319E-004	...........
	610	152.75	-2.39682E-001	-2.39623E-001	4.33735E-004	...........
	611	153	-2.39700E-001	-2.39508E-001	4.32777E-004	...........
	612	153.25	-2.39680E-001	-2.39407E-001	4.28485E-004	...........
	613	153.5	-2.39616E-001	-2.39257E-001	4.31652E-004	...........
	614	153.75	-2.39519E-001	-2.39137E-001	4.30027E-004	...........
	615	154	-2.39406E-001	-2.39203E-001	4.30569E-004	...........
	616	154.25	-2.39303E-001	-2.39284E-001	4.32944E-004	...........
	617	154.5	-2.39241E-001	-2.39305E-001	4.32819E-004	...........
	618	154.75	-2.39231E-001	-2.39355E-001	4.35360E-004	...........
	619	155	-2.39257E-001	-2.39345E-001	4.26694E-004	...........
	620	155.25	-2.39294E-001	-2.39362E-001	4.26777E-004	...........
	621	155.5	-2.39327E-001	-2.39419E-001	4.25902E-004	...........
EOC	QUANT	-0.2393266	Open Circuit (V)
PSTATMODEL	IQUANT	4	Pstat Model
PSTATSECTION	LABEL	REF600-19025	Pstat Section
PSTATSERIALNO	LABEL	19025	Pstat Serial Number
CTRLMODE	IQUANT	1	Control Mode
IESTAB	IQUANT	0	I/E Stability
CASPEED	IQUANT	1	Control Amp Speed
CONVENTION	IQUANT	1	Current Convention
ICHRANGE	IQUANT	2	Ich Range
ICHRANGEMODE	TOGGLE	F	Ich Auto Range
ICHOFFSETENABLE	TOGGLE	T	Ich Offset Enable
ICHOFFSET	QUANT	0	Ich Offset (V)
ICHFILTER	IQUANT	3	Ich Filter
VCHRANGE	IQUANT	2	Vch Range
VCHRANGEMODE	TOGGLE	F	Vch Auto Range
VCHOFFSETENABLE	TOGGLE	T	Vch Offset Enable
VCHOFFSET	QUANT	0	Vch Offset (V)
VCHFILTER	IQUANT	3	Vch Filter
ACHRANGE	IQUANT	2	Ach Range
ACHOFFSETENABLE	TOGGLE	F	Ach Offset Enable
ACHOFFSET	QUANT	0	Ach Offset (V)
ACHFILTER	IQUANT	3	Ach Filter
IERANGELOWERLIMIT	IQUANT	1	I/E Range Lower Limit
IERANGEMODE	TOGGLE	F	I/E AutoRange
IERANGE	IQUANT	3	I/E Range
POSFEEDENABLE	TOGGLE	F	Positive Feedback IR Comp
POSFEEDRESISTANCE	QUANT	0	Positive Feedback Resistance (ohm)
ACHSELECT	IQUANT	0	Ach Select
CABLEID	IQUANT	13	Cable ID
DCCALDATE	LABEL	2017-4-11	DC Calibration Date
ACCALDATE	LABEL	2017-4-11	AC Calibration Date
THERMOSELECT	IQUANT	1	Thermo Select
FRAMEWORKVERSION	QUANT	6.04	Framework Version
INSTRUMENTVERSION	LABEL	3.04	Instrument Version
ZCURVE	TABLE
	Pt	Time	Freq	Zreal	Zimag	Zsig	Zmod	Zphz	Idc	Vdc	IERange
	#	s	Hz	ohm	ohm	V	ohm	ï¿½	A	V	#
	0	6	100078.1	19745.55	-260340.1	1	261087.8	-85.6627	4.200481E-007	-0.2385191	8
	1	12	63140.62	30065.87	-375848.7	1	377049.4	-85.42638	-1.762772E-006	-0.2383032	8
	2	15	39890.62	-17269.6	-595124.1	1	595374.6	-91.66217	-1.041888E-006	-0.2366406	7
	3	19	25171.88	140747.7	-997344	1	1007226	-81.96732	-1.045202E-006	-0.236653	7
	4	21	15890.62	175613.6	-1501415	1	1511650	-83.32869	1.05098E-006	-0.2387469	7
	5	29	10078.13	112331.5	-2265759	1	2268542	-87.16172	7.626441E-007	-0.2383384	7
	6	36	6328.125	498167.7	-3333783	1	3370799	-81.50117	1.056502E-006	-0.2387489	7
	7	40	3984.375	483766.8	-5196375	1	5218846	-84.68127	-1.907518E-007	-0.2368317	6
	8	46	2527.573	2287685	-8157897	1	8472591	-74.33514	-1.510864E-007	-0.2350635	6
	9	48	1577.524	3814911	-1.001186E+007	1	1.071405E+007	-69.1412	-2.374571E-007	-0.2356092	6
	10	51	998.264	6623797	-1.351546E+007	1	1.505133E+007	-63.89098	-2.098981E-007	-0.2345615	6
	12	55	397.9953	8511163	-3.995208E+007	1	4.084861E+007	-77.97382	-3.318568E-011	-0.2382818	5
	13	63	252.4038	1.225926E+007	-5.791405E+007	1	5.919736E+007	-78.04805	-2.912065E-011	-0.2382757	5
	14	65	158.3615	1.936196E+007	-8.784418E+007	1	8.995268E+007	-77.57004	-3.335994E-012	-0.2382835	5
	15	68	100.4464	4.108251E+007	-1.268413E+008	1	1.333285E+008	-72.05342	-1.452495E-011	-0.2382824	5
	16	71	63.3446	7.960472E+007	-1.69978E+008	1	1.876951E+008	-64.9052	-5.499772E-011	-0.2382648	5
	18	78	24.93351	1.832192E+008	-4.140459E+008	1	4.527729E+008	-66.13016	5.684381E-013	-0.2382767	4
	21	91	6.317385	6.701052E+008	-9.584252E+008	1	1.169453E+009	-55.03979	4.905417E-012	-0.2382664	4
	22	97	3.945707	1.019221E+009	-1.020039E+009	1	1.441974E+009	-45.02299	4.398583E-014	-0.2382472	3
	23	106	2.504006	1.315509E+009	-1.050516E+009	1	1.683493E+009	-38.60954	8.405854E-013	-0.2382512	3
	24	113	1.584686	1.575004E+009	-1.045877E+009	1	1.890633E+009	-33.58604	1.315609E-012	-0.2382424	3
	25	123	0.999041	1.761146E+009	-9.929361E+008	1	2.021771E+009	-29.41435	1.233036E-012	-0.2382417	3
	26	130	0.633446	2.144023E+009	-1.218949E+009	1	2.466307E+009	-29.61969	1.448914E-012	-0.2389854	3
	27	142	0.400641	2.425726E+009	-1.408843E+009	1	2.805171E+009	-30.14768	2.175534E-012	-0.2389889	2
	28	159	0.2520161	2.659109E+009	-1.706157E+009	1	3.159404E+009	-32.68533	2.379082E-012	-0.2389897	2
	29	185	0.1588983	2.995751E+009	-2.229326E+009	1	3.734222E+009	-36.65524	2.491362E-012	-0.2389903	2
	30	223	0.1001603	3.15766E+009	-2.970706E+009	1	4.335425E+009	-43.25265	2.537249E-012	-0.2389913	2