EXPLAIN
TAG	EISPOT
TITLE	LABEL	Potentiostatic EIS	Test &Identifier
DATE	LABEL	2017-4-15	Date
TIME	LABEL	16:07:47	Time
NOTES	NOTES	2	&Notes...
	
	
PSTAT	PSTAT	REF600-19025	Potentiostat
VDC	POTEN	0.00000E+000	T	DC &Voltage (V)
FREQINIT	QUANT	1.00000E+005	Initial Fre&q. (Hz)
FREQFINAL	QUANT	1.00000E-001	Final Fre&q. (Hz)
PTSPERDEC	QUANT	5.00000E+000	Points/&decade
VAC	QUANT	2.00000E+001	AC &Voltage (mV rms)
AREA	QUANT	1.00000E+000	&Area (cm^2)
CONDIT	TWOPARAM	F	1.50000E+001	0.00000E+000	Conditionin&g	Time(s)	E(V)
DELAY	TWOPARAM	T	3.00000E+002	0.00000E+000	Init. De&lay	Time(s)	Stab.(mV/s)
SPEED	SELECTOR	2	&Optimize for:
ZGUESS	QUANT	1.00000E+008	E&stimated Z (ohms)
OCVCURVE	TABLE	948
	Pt	T	Vf	Vm	Ach	Over
	#	s	V vs. Ref.	V	V	bits
	0	0.25	2.67755E-001	2.67755E-001	4.61211E-004	...........
	1	0.5	2.67738E-001	2.66815E-001	4.57586E-004	...........
	2	0.75	2.67629E-001	2.66016E-001	4.59128E-004	...........
	3	1	2.67383E-001	2.68116E-001	4.64378E-004	...........
	4	1.25	2.67085E-001	2.64531E-001	4.59045E-004	...........
	5	1.5	2.66744E-001	2.63704E-001	4.59336E-004	...........
	6	1.75	2.66151E-001	2.63094E-001	4.59086E-004	...........
	7	2	2.65234E-001	2.62657E-001	4.55211E-004	...........
	8	2.25	2.64225E-001	2.61835E-001	4.56878E-004	...........
	9	2.5	2.63335E-001	2.61196E-001	4.50628E-004	...........
	10	2.75	2.62584E-001	2.60600E-001	4.52628E-004	...........
	11	3	2.61907E-001	2.59859E-001	4.50461E-004	...........
	12	3.25	2.61254E-001	2.59257E-001	4.48295E-004	...........
	13	3.5	2.60602E-001	2.58546E-001	4.46878E-004	...........
	14	3.75	2.59943E-001	2.57852E-001	4.47337E-004	...........
	15	4	2.59276E-001	2.57235E-001	4.54670E-004	...........
	16	4.25	2.58605E-001	2.56584E-001	4.45378E-004	...........
	17	4.5	2.57937E-001	2.55834E-001	4.51003E-004	...........
	18	4.75	2.57266E-001	2.54983E-001	4.46128E-004	...........
	19	5	2.56565E-001	2.53899E-001	4.50545E-004	...........
	20	5.25	2.55795E-001	2.52920E-001	4.52420E-004	...........
	21	5.5	2.54924E-001	2.51416E-001	4.51920E-004	...........
	22	5.75	2.53935E-001	2.50549E-001	4.53961E-004	...........
	23	6	2.52856E-001	2.49781E-001	4.57586E-004	...........
	24	6.25	2.51764E-001	2.48671E-001	4.51378E-004	...........
	25	6.5	2.50721E-001	2.47456E-001	4.48253E-004	...........
	26	6.75	2.49715E-001	2.46954E-001	4.53128E-004	...........
	27	7	2.48740E-001	2.46401E-001	4.53211E-004	...........
	28	7.25	2.47846E-001	2.45659E-001	4.50837E-004	...........
	29	7.5	2.47077E-001	2.45544E-001	4.45128E-004	...........
	30	7.75	2.46462E-001	2.46255E-001	4.54295E-004	...........
	31	8	2.46075E-001	2.46619E-001	4.49712E-004	...........
	32	8.25	2.45998E-001	2.47342E-001	4.53878E-004	...........
	33	8.5	2.46192E-001	2.46028E-001	4.52336E-004	...........
	34	8.75	2.46431E-001	2.45445E-001	4.48920E-004	...........
	35	9	2.46455E-001	2.45672E-001	4.51253E-004	...........
	36	9.25	2.46206E-001	2.44527E-001	4.54586E-004	...........
	37	9.5	2.45789E-001	2.43908E-001	4.49712E-004	...........
	38	9.75	2.45262E-001	2.42969E-001	4.53378E-004	...........
	39	10	2.44624E-001	2.42335E-001	4.49212E-004	...........
	40	10.25	2.43899E-001	2.41520E-001	4.48961E-004	...........
	41	10.5	2.43128E-001	2.40500E-001	4.51420E-004	...........
	42	10.75	2.42327E-001	2.39622E-001	4.47420E-004	...........
	43	11	2.41489E-001	2.38946E-001	4.45295E-004	...........
	44	11.25	2.40635E-001	2.38304E-001	4.49462E-004	...........
	45	11.5	2.39812E-001	2.37592E-001	4.49503E-004	...........
	46	11.75	2.39050E-001	2.36970E-001	4.55795E-004	...........
	47	12	2.38337E-001	2.36083E-001	4.52211E-004	...........
	48	12.25	2.37640E-001	2.35396E-001	4.52961E-004	...........
	49	12.5	2.36926E-001	2.34571E-001	4.57170E-004	...........
	50	12.75	2.36184E-001	2.33789E-001	4.55420E-004	...........
	51	13	2.35420E-001	2.33057E-001	4.50670E-004	...........
	52	13.25	2.34647E-001	2.32336E-001	4.54378E-004	...........
	53	13.5	2.33880E-001	2.31599E-001	4.54545E-004	...........
	54	13.75	2.33126E-001	2.30739E-001	4.59961E-004	...........
	55	14	2.32373E-001	2.30029E-001	4.54503E-004	...........
	56	14.25	2.31608E-001	2.28984E-001	4.51128E-004	...........
	57	14.5	2.30818E-001	2.28418E-001	4.49837E-004	...........
	58	14.75	2.30015E-001	2.27886E-001	4.53503E-004	...........
	59	15	2.29243E-001	2.27208E-001	4.50211E-004	...........
	60	15.25	2.28535E-001	2.26557E-001	4.53753E-004	...........
	61	15.5	2.27873E-001	2.25574E-001	4.57336E-004	...........
	62	15.75	2.27200E-001	2.24765E-001	4.60128E-004	...........
	63	16	2.26470E-001	2.24026E-001	4.53711E-004	...........
	64	16.25	2.25681E-001	2.23035E-001	4.55961E-004	...........
	65	16.5	2.24861E-001	2.22452E-001	4.54295E-004	...........
	66	16.75	2.24045E-001	2.21949E-001	4.53836E-004	...........
	67	17	2.23276E-001	2.21372E-001	4.53503E-004	...........
	68	17.25	2.22589E-001	2.20743E-001	4.54628E-004	...........
	69	17.5	2.21968E-001	2.20122E-001	4.57128E-004	...........
	70	17.75	2.21374E-001	2.19476E-001	4.55128E-004	...........
	71	18	2.20773E-001	2.18800E-001	4.54878E-004	...........
	72	18.25	2.20151E-001	2.18091E-001	4.54836E-004	...........
	73	18.5	2.19502E-001	2.17262E-001	4.48753E-004	...........
	74	18.75	2.18818E-001	2.16522E-001	4.50295E-004	...........
	75	19	2.18098E-001	2.15865E-001	4.50170E-004	...........
	76	19.25	2.17361E-001	2.15218E-001	4.56670E-004	...........
	77	19.5	2.16702E-001	2.18051E-001	4.53461E-004	...........
	78	19.75	2.16276E-001	2.13462E-001	4.51378E-004	...........
	79	20	2.15988E-001	2.13036E-001	4.50670E-004	...........
	80	20.25	2.15460E-001	2.12654E-001	4.54753E-004	...........
	81	20.5	2.14600E-001	2.13548E-001	4.58378E-004	...........
	82	20.75	2.13907E-001	2.20041E-001	4.54086E-004	...........
	83	21	2.14343E-001	2.31953E-001	4.51211E-004	...........
	84	21.25	2.16821E-001	2.28263E-001	4.50420E-004	...........
	85	21.5	2.20914E-001	2.24611E-001	4.50461E-004	...........
	86	21.75	2.24589E-001	2.24059E-001	4.49920E-004	...........
	87	22	2.26140E-001	2.20289E-001	4.48295E-004	...........
	88	22.25	2.25623E-001	2.23666E-001	4.49628E-004	...........
	89	22.5	2.24182E-001	2.19145E-001	4.45753E-004	...........
	90	22.75	2.22678E-001	2.15957E-001	4.54003E-004	...........
	91	23	2.21091E-001	2.14231E-001	4.52586E-004	...........
	92	23.25	2.19124E-001	2.12413E-001	4.47337E-004	...........
	93	23.5	2.16891E-001	2.11188E-001	4.52878E-004	...........
	94	23.75	2.14748E-001	2.10066E-001	4.49503E-004	...........
	95	24	2.12922E-001	2.09111E-001	4.53545E-004	...........
	96	24.25	2.11446E-001	2.08229E-001	4.46545E-004	...........
	97	24.5	2.11400E-001	2.67808E-001	4.37670E-004	...........
	98	24.75	2.16264E-001	2.61209E-001	4.40420E-004	...........
	99	25	2.27722E-001	2.40699E-001	4.42295E-004	...........
	100	25.25	2.40152E-001	2.25523E-001	4.41003E-004	...........
	101	25.5	2.45412E-001	2.22232E-001	4.36087E-004	...........
	102	25.75	2.41775E-001	2.20938E-001	4.43462E-004	...........
	103	26	2.33851E-001	2.16907E-001	4.40628E-004	...........
	104	26.25	2.26281E-001	2.08630E-001	4.37962E-004	...........
	105	26.5	2.20279E-001	2.01499E-001	4.41420E-004	...........
	106	26.75	2.14872E-001	1.99221E-001	4.43837E-004	...........
	107	27	2.09491E-001	1.99911E-001	4.43462E-004	...........
	108	27.25	2.04795E-001	1.99770E-001	4.43545E-004	...........
	109	27.5	2.01630E-001	1.99039E-001	4.48295E-004	...........
	110	27.75	2.00002E-001	1.97815E-001	4.41253E-004	...........
	111	28	1.99235E-001	1.97528E-001	4.34878E-004	...........
	112	28.25	1.98697E-001	1.97125E-001	4.40045E-004	...........
	113	28.5	1.98133E-001	1.95310E-001	4.46670E-004	...........
	114	28.75	1.97441E-001	1.93204E-001	4.34962E-004	...........
	115	29	1.96471E-001	1.91687E-001	4.42670E-004	...........
	116	29.25	1.95147E-001	1.90176E-001	4.46503E-004	...........
	117	29.5	1.93574E-001	1.88506E-001	4.39420E-004	...........
	118	29.75	1.91937E-001	1.87853E-001	4.37670E-004	...........
	119	30	1.90379E-001	1.86017E-001	4.40837E-004	...........
	120	30.25	1.88939E-001	1.84433E-001	4.48253E-004	...........
	121	30.5	1.87568E-001	1.84279E-001	4.44920E-004	...........
	122	30.75	1.86380E-001	1.89139E-001	4.35128E-004	...........
	123	31	1.85986E-001	1.96977E-001	4.45003E-004	...........
	124	31.25	1.87360E-001	2.05559E-001	4.39962E-004	...........
	125	31.5	1.91117E-001	2.11833E-001	4.38378E-004	...........
	126	31.75	1.96917E-001	2.17421E-001	4.44170E-004	...........
	127	32	2.03660E-001	2.21436E-001	4.45295E-004	...........
	128	32.25	2.10165E-001	2.22881E-001	4.39170E-004	...........
	129	32.5	2.15528E-001	2.20228E-001	4.44087E-004	...........
	130	32.75	2.19070E-001	2.17727E-001	4.48045E-004	...........
	131	33	2.20573E-001	2.22310E-001	4.42212E-004	...........
	132	33.25	2.20753E-001	2.22603E-001	4.42337E-004	...........
	133	33.5	2.20741E-001	2.19442E-001	4.49378E-004	...........
	134	33.75	2.20838E-001	2.16596E-001	4.43253E-004	...........
	135	34	2.20433E-001	2.13651E-001	4.43337E-004	...........
	136	34.25	2.19045E-001	2.11052E-001	4.41920E-004	...........
	137	34.5	2.16816E-001	2.08920E-001	4.47212E-004	...........
	138	34.75	2.14212E-001	2.06842E-001	4.49295E-004	...........
	139	35	2.11627E-001	2.04737E-001	4.41128E-004	...........
	140	35.25	2.09231E-001	2.02685E-001	4.45337E-004	...........
	141	35.5	2.07014E-001	2.00676E-001	4.42878E-004	...........
	142	35.75	2.04908E-001	1.98701E-001	4.44378E-004	...........
	143	36	2.02879E-001	1.97636E-001	4.45795E-004	...........
	144	36.25	2.01061E-001	2.01111E-001	4.48378E-004	...........
	145	36.5	1.99876E-001	2.02553E-001	4.45420E-004	...........
	146	36.75	1.99945E-001	2.13971E-001	4.39962E-004	...........
	147	37	2.01877E-001	2.17645E-001	4.40962E-004	...........
	148	37.25	2.05821E-001	2.22266E-001	4.47712E-004	...........
	149	37.5	2.10725E-001	2.09236E-001	4.39170E-004	...........
	150	37.75	2.14072E-001	1.93676E-001	4.44920E-004	...........
	151	38	2.13051E-001	1.82933E-001	4.45503E-004	...........
	152	38.25	2.06836E-001	1.78702E-001	4.43962E-004	...........
	153	38.5	1.97541E-001	1.76364E-001	4.40003E-004	...........
	154	38.75	1.88443E-001	1.74375E-001	4.44920E-004	...........
	155	39	1.81618E-001	1.73221E-001	4.45503E-004	...........
	156	39.25	1.77317E-001	1.72196E-001	4.53711E-004	...........
	157	39.5	1.74810E-001	1.71059E-001	4.48670E-004	...........
	158	39.75	1.73269E-001	1.69882E-001	4.40337E-004	...........
	159	40	1.72136E-001	1.69899E-001	4.41128E-004	...........
	160	40.25	1.71234E-001	1.71581E-001	4.32878E-004	...........
	161	40.5	1.70700E-001	1.71549E-001	4.44545E-004	...........
	162	40.75	1.70641E-001	1.70857E-001	4.45878E-004	...........
	163	41	1.70820E-001	1.68931E-001	4.37587E-004	...........
	164	41.25	1.70764E-001	1.67002E-001	4.39378E-004	...........
	165	41.5	1.70151E-001	1.66575E-001	4.51712E-004	...........
	166	41.75	1.69052E-001	1.65314E-001	4.46420E-004	...........
	167	42	1.67775E-001	1.64083E-001	4.40212E-004	...........
	168	42.25	1.66533E-001	1.62928E-001	4.45712E-004	...........
	169	42.5	1.65337E-001	1.61191E-001	4.47003E-004	...........
	170	42.75	1.64107E-001	1.59548E-001	4.40045E-004	...........
	171	43	1.62731E-001	1.56408E-001	4.40170E-004	...........
	172	43.25	1.61090E-001	1.54403E-001	4.43212E-004	...........
	173	43.5	1.59142E-001	1.53079E-001	4.40128E-004	...........
	174	43.75	1.57039E-001	1.51326E-001	4.40670E-004	...........
	175	44	1.55015E-001	1.49784E-001	4.42045E-004	...........
	176	44.25	1.53186E-001	1.48597E-001	4.48961E-004	...........
	177	44.5	1.51555E-001	1.47809E-001	4.47003E-004	...........
	178	44.75	1.50124E-001	1.46706E-001	4.46503E-004	...........
	179	45	1.48898E-001	1.46113E-001	4.47503E-004	...........
	180	45.25	1.47946E-001	1.50244E-001	4.40337E-004	...........
	181	45.5	1.47603E-001	1.53427E-001	4.37795E-004	...........
	182	45.75	1.48265E-001	1.52547E-001	4.37212E-004	...........
	183	46	1.49708E-001	1.51004E-001	4.43545E-004	...........
	184	46.25	1.51035E-001	1.49706E-001	4.34878E-004	...........
	185	46.5	1.51491E-001	1.48313E-001	4.37837E-004	...........
	186	46.75	1.50991E-001	1.46875E-001	4.36587E-004	...........
	187	47	1.49877E-001	1.45570E-001	4.44295E-004	...........
	188	47.25	1.48505E-001	1.44152E-001	4.33545E-004	...........
	189	47.5	1.47078E-001	1.42852E-001	4.36253E-004	...........
	190	47.75	1.45672E-001	1.41516E-001	4.36753E-004	...........
	191	48	1.44301E-001	1.40271E-001	4.43587E-004	...........
	192	48.25	1.42962E-001	1.38938E-001	4.39878E-004	...........
	193	48.5	1.41643E-001	1.37459E-001	4.38003E-004	...........
	194	48.75	1.40324E-001	1.36282E-001	4.43087E-004	...........
	195	49	1.38998E-001	1.35083E-001	4.39253E-004	...........
	196	49.25	1.37686E-001	1.33843E-001	4.33003E-004	...........
	197	49.5	1.36407E-001	1.32541E-001	4.34295E-004	...........
	198	49.75	1.35156E-001	1.31393E-001	4.31003E-004	...........
	199	50	1.33920E-001	1.30288E-001	4.42587E-004	...........
	200	50.25	1.32706E-001	1.29174E-001	4.41878E-004	...........
	201	50.5	1.31524E-001	1.27949E-001	4.44462E-004	...........
	202	50.75	1.30339E-001	1.25334E-001	4.36962E-004	...........
	203	51	1.28953E-001	1.19577E-001	4.40587E-004	...........
	204	51.25	1.26911E-001	1.12947E-001	4.47420E-004	...........
	205	51.5	1.23786E-001	1.11832E-001	4.38295E-004	...........
	206	51.75	1.19813E-001	1.10462E-001	4.40170E-004	...........
	207	52	1.15944E-001	1.10832E-001	4.46462E-004	...........
	208	52.25	1.13130E-001	1.13616E-001	4.54920E-004	...........
	209	52.5	1.12110E-001	1.30080E-001	4.43837E-004	...........
	210	52.75	1.13961E-001	1.43013E-001	4.45712E-004	...........
	211	53	1.19280E-001	1.30669E-001	4.45295E-004	...........
	212	53.25	1.25674E-001	1.05970E-001	4.48295E-004	...........
	213	53.5	1.27882E-001	9.07445E-002	4.48837E-004	...........
	214	53.75	1.22482E-001	8.72996E-002	4.40753E-004	...........
	215	54	1.11467E-001	8.63155E-002	4.46503E-004	...........
	216	54.25	9.99821E-002	8.50445E-002	4.41837E-004	...........
	217	54.5	9.16813E-002	8.33300E-002	4.41753E-004	...........
	218	54.75	8.70118E-002	8.20987E-002	4.42462E-004	...........
	219	55	8.46760E-002	8.25965E-002	4.49170E-004	...........
	220	55.25	8.34373E-002	8.11855E-002	4.45087E-004	...........
	221	55.5	8.26238E-002	7.90877E-002	4.43670E-004	...........
	222	55.75	8.18364E-002	7.86617E-002	4.44962E-004	...........
	223	56	8.09111E-002	7.97942E-002	4.38795E-004	...........
	224	56.25	8.02039E-002	8.75437E-002	4.43878E-004	...........
	225	56.5	8.06179E-002	9.40850E-002	4.45628E-004	...........
	226	56.75	8.29473E-002	9.68956E-002	4.43670E-004	...........
	227	57	8.70179E-002	1.01601E-001	4.40420E-004	...........
	228	57.25	9.19439E-002	1.10792E-001	4.41795E-004	...........
	229	57.5	9.74040E-002	1.24426E-001	4.50503E-004	...........
	230	57.75	1.04086E-001	1.35453E-001	4.45003E-004	...........
	231	58	1.12497E-001	1.36974E-001	4.44670E-004	...........
	232	58.25	1.21661E-001	1.39186E-001	4.46503E-004	...........
	233	58.5	1.29527E-001	1.35189E-001	4.48837E-004	...........
	234	58.75	1.34476E-001	1.31948E-001	4.41003E-004	...........
	235	59	1.36187E-001	1.32857E-001	4.43253E-004	...........
	236	59.25	1.35593E-001	1.31403E-001	4.45712E-004	...........
	237	59.5	1.34102E-001	1.29346E-001	4.42587E-004	...........
	238	59.75	1.32548E-001	1.27195E-001	4.45503E-004	...........
	239	60	1.30994E-001	1.25162E-001	4.47045E-004	...........
	240	60.25	1.29281E-001	1.23252E-001	4.50087E-004	...........
	241	60.5	1.27393E-001	1.21410E-001	4.43295E-004	...........
	242	60.75	1.25431E-001	1.19695E-001	4.51086E-004	...........
	243	61	1.23498E-001	1.18099E-001	4.48295E-004	...........
	244	61.25	1.21653E-001	1.16570E-001	4.44878E-004	...........
	245	61.5	1.19915E-001	1.15070E-001	4.45378E-004	...........
	246	61.75	1.18275E-001	1.13560E-001	4.47295E-004	...........
	247	62	1.16707E-001	1.12072E-001	4.46170E-004	...........
	248	62.25	1.15185E-001	1.10685E-001	4.45878E-004	...........
	249	62.5	1.13694E-001	1.09267E-001	4.42462E-004	...........
	250	62.75	1.12232E-001	1.07904E-001	4.47712E-004	...........
	251	63	1.10802E-001	1.06574E-001	4.42337E-004	...........
	252	63.25	1.09404E-001	1.05296E-001	4.45503E-004	...........
	253	63.5	1.08039E-001	1.04053E-001	4.48378E-004	...........
	254	63.75	1.06712E-001	1.02838E-001	4.49795E-004	...........
	255	64	1.05429E-001	1.01908E-001	4.47087E-004	...........
	256	64.25	1.04272E-001	1.04389E-001	4.44920E-004	...........
	257	64.5	1.03469E-001	1.03197E-001	4.50920E-004	...........
	258	64.75	1.03144E-001	1.01874E-001	4.43170E-004	...........
	259	65	1.03006E-001	1.00283E-001	4.38378E-004	...........
	260	65.25	1.02601E-001	9.91768E-002	4.49212E-004	...........
	261	65.5	1.01760E-001	9.83582E-002	4.45503E-004	...........
	262	65.75	1.00656E-001	9.76302E-002	4.41212E-004	...........
	263	66	9.95409E-002	9.69085E-002	4.45337E-004	...........
	264	66.25	9.85552E-002	9.60940E-002	4.45212E-004	...........
	265	66.5	9.76817E-002	9.43657E-002	4.43170E-004	...........
	266	66.75	9.67868E-002	9.28290E-002	4.42045E-004	...........
	267	67	9.57329E-002	9.19992E-002	4.47295E-004	...........
	268	67.25	9.45194E-002	9.08964E-002	4.47295E-004	...........
	269	67.5	9.32708E-002	8.98000E-002	4.37587E-004	...........
	270	67.75	9.20853E-002	8.87834E-002	4.37212E-004	...........
	271	68	9.09705E-002	8.76572E-002	4.44212E-004	...........
	272	68.25	8.98924E-002	8.65412E-002	4.41545E-004	...........
	273	68.5	8.88232E-002	8.56928E-002	4.43920E-004	...........
	274	68.75	8.77631E-002	8.46529E-002	4.43587E-004	...........
	275	69	8.67217E-002	8.33046E-002	4.44212E-004	...........
	276	69.25	8.56899E-002	8.28590E-002	4.47878E-004	...........
	277	69.5	8.46904E-002	8.28170E-002	4.49961E-004	...........
	278	69.75	8.38118E-002	8.16437E-002	4.45587E-004	...........
	279	70	8.30849E-002	8.06937E-002	4.41753E-004	...........
	280	70.25	8.23998E-002	7.97041E-002	4.37837E-004	...........
	281	70.5	8.16278E-002	7.85835E-002	4.47253E-004	...........
	282	70.75	8.07361E-002	7.77947E-002	4.48503E-004	...........
	283	71	7.97739E-002	7.69917E-002	4.47003E-004	...........
	284	71.25	7.88190E-002	7.63575E-002	4.46295E-004	...........
	285	71.5	7.79288E-002	7.54710E-002	4.57920E-004	...........
	286	71.75	7.71056E-002	7.45425E-002	4.39628E-004	...........
	287	72	7.63042E-002	7.36546E-002	4.40212E-004	...........
	288	72.25	7.54798E-002	7.28320E-002	4.46503E-004	...........
	289	72.5	7.46258E-002	7.20111E-002	4.42670E-004	...........
	290	72.75	7.37647E-002	7.12363E-002	4.38462E-004	...........
	291	73	7.29198E-002	7.04773E-002	4.43420E-004	...........
	292	73.25	7.21018E-002	6.97148E-002	4.45920E-004	...........
	293	73.5	7.13075E-002	6.88264E-002	4.48837E-004	...........
	294	73.75	7.05410E-002	6.90977E-002	4.43212E-004	...........
	295	74	6.98215E-002	6.67822E-002	4.48878E-004	...........
	296	74.25	6.91035E-002	6.62706E-002	4.48087E-004	...........
	297	74.5	6.82869E-002	6.56795E-002	4.47503E-004	...........
	298	74.75	6.73816E-002	6.49252E-002	4.51461E-004	...........
	299	75	6.64893E-002	6.35497E-002	4.53086E-004	...........
	300	75.25	6.56370E-002	6.33268E-002	4.50045E-004	...........
	301	75.5	6.48027E-002	6.25531E-002	4.43003E-004	...........
	302	75.75	6.40111E-002	6.19669E-002	4.51378E-004	...........
	303	76	6.32920E-002	6.13373E-002	4.50628E-004	...........
	304	76.25	6.26318E-002	6.07033E-002	4.44212E-004	...........
	305	76.5	6.19986E-002	5.99909E-002	4.45420E-004	...........
	306	76.75	6.13675E-002	5.94162E-002	4.51503E-004	...........
	307	77	6.07291E-002	5.87764E-002	4.43170E-004	...........
	308	77.25	6.00887E-002	5.81227E-002	4.42420E-004	...........
	309	77.5	5.94518E-002	5.75107E-002	4.51086E-004	...........
	310	77.75	5.88179E-002	5.68903E-002	4.50128E-004	...........
	311	78	5.81868E-002	5.62485E-002	4.44128E-004	...........
	312	78.25	5.75582E-002	5.56220E-002	4.48170E-004	...........
	313	78.5	5.69287E-002	5.49259E-002	4.46420E-004	...........
	314	78.75	5.62926E-002	5.42742E-002	4.42837E-004	...........
	315	79	5.56428E-002	5.34760E-002	4.44295E-004	...........
	316	79.25	5.49709E-002	5.27394E-002	4.45462E-004	...........
	317	79.5	5.42707E-002	5.20149E-002	4.47462E-004	...........
	318	79.75	5.35498E-002	5.14731E-002	4.43045E-004	...........
	319	80	5.28444E-002	5.13382E-002	4.44795E-004	...........
	320	80.25	5.21866E-002	4.94291E-002	4.49670E-004	...........
	321	80.5	5.15313E-002	4.92806E-002	4.45878E-004	...........
	322	80.75	5.08049E-002	4.85120E-002	4.52961E-004	...........
	323	81	5.00317E-002	4.79921E-002	4.45337E-004	...........
	324	81.25	4.92967E-002	4.74584E-002	4.44462E-004	...........
	325	81.5	4.86368E-002	4.68045E-002	4.43545E-004	...........
	326	81.75	4.80311E-002	4.61635E-002	4.47753E-004	...........
	327	82	4.74408E-002	4.55708E-002	4.45920E-004	...........
	328	82.25	4.68420E-002	4.50010E-002	4.46878E-004	...........
	329	82.5	4.62360E-002	4.43773E-002	4.47045E-004	...........
	330	82.75	4.56312E-002	4.37732E-002	4.46295E-004	...........
	331	83	4.50279E-002	4.31249E-002	4.47087E-004	...........
	332	83.25	4.44192E-002	4.24473E-002	4.46170E-004	...........
	333	83.5	4.37981E-002	4.18566E-002	4.48378E-004	...........
	334	83.75	4.31644E-002	4.11578E-002	4.51253E-004	...........
	335	84	4.25205E-002	4.04190E-002	4.47961E-004	...........
	336	84.25	4.18663E-002	3.99430E-002	4.45003E-004	...........
	337	84.5	4.11789E-002	3.76609E-002	4.49587E-004	...........
	338	84.75	4.02224E-002	2.90114E-002	4.47545E-004	...........
	339	85	3.84627E-002	2.93530E-002	4.43420E-004	...........
	340	85.25	3.56850E-002	2.68509E-002	4.47753E-004	...........
	341	85.5	3.24598E-002	2.41380E-002	4.49503E-004	...........
	342	85.75	2.94739E-002	2.25319E-002	4.50837E-004	...........
	343	86	2.69101E-002	2.05082E-002	4.46712E-004	...........
	344	86.25	2.46791E-002	1.94593E-002	4.50837E-004	...........
	345	86.5	2.27447E-002	1.92420E-002	4.45003E-004	...........
	346	86.75	2.11873E-002	1.93695E-002	4.44378E-004	...........
	347	87	1.99974E-002	1.29024E-002	4.44670E-004	...........
	348	87.25	1.87076E-002	8.78692E-003	4.46295E-004	...........
	349	87.5	1.67133E-002	1.14172E-002	4.38295E-004	...........
	350	87.75	1.41456E-002	6.53448E-003	4.38962E-004	...........
	351	88	1.15887E-002	2.03210E-003	4.43795E-004	...........
	352	88.25	9.05150E-003	-1.08442E-003	4.40878E-004	...........
	353	88.5	6.19314E-003	-1.86568E-003	4.41003E-004	...........
	354	88.75	3.26638E-003	2.06231E-003	4.43712E-004	...........
	355	89	1.23852E-003	7.37546E-003	4.43628E-004	...........
	356	89.25	1.49904E-003	3.25047E-002	4.41670E-004	.........v.
	357	89.5	5.89673E-003	5.36164E-002	4.40087E-004	...........
	358	89.75	1.56857E-002	5.54625E-002	4.50711E-004	...........
	359	90	2.91291E-002	5.38985E-002	4.45087E-004	...........
	360	90.25	4.16763E-002	5.14636E-002	4.42962E-004	...........
	361	90.5	4.97616E-002	5.61753E-002	4.43545E-004	...........
	362	90.75	5.37220E-002	7.46243E-002	4.45670E-004	...........
	363	91	5.65918E-002	6.24362E-002	4.47670E-004	...........
	364	91.25	6.00586E-002	6.12723E-002	4.47087E-004	...........
	365	91.5	6.27320E-002	5.48302E-002	4.44003E-004	...........
	366	91.75	6.29554E-002	5.92548E-002	4.44212E-004	...........
	367	92	6.11309E-002	5.01723E-002	4.44795E-004	...........
	368	92.25	5.85177E-002	5.08008E-002	4.45462E-004	...........
	369	92.5	5.56876E-002	4.50922E-002	4.41920E-004	...........
	370	92.75	5.26142E-002	3.96639E-002	4.43420E-004	...........
	371	93	4.91173E-002	3.63491E-002	4.40212E-004	...........
	372	93.25	4.51728E-002	3.43278E-002	4.42878E-004	...........
	373	93.5	4.11882E-002	3.30181E-002	4.42337E-004	...........
	374	93.75	3.77466E-002	3.16308E-002	4.40378E-004	...........
	375	94	3.51173E-002	2.99293E-002	4.47628E-004	...........
	376	94.25	3.31581E-002	2.86031E-002	4.40295E-004	...........
	377	94.5	3.15687E-002	2.74928E-002	4.43878E-004	...........
	378	94.75	3.01525E-002	2.65885E-002	4.43628E-004	...........
	379	95	2.88657E-002	2.57060E-002	4.47253E-004	...........
	380	95.25	2.77156E-002	2.45947E-002	4.44503E-004	...........
	381	95.5	2.66696E-002	2.34065E-002	4.41420E-004	...........
	382	95.75	2.56536E-002	2.23339E-002	4.44962E-004	...........
	383	96	2.46117E-002	2.13808E-002	4.45545E-004	...........
	384	96.25	2.35475E-002	2.04498E-002	4.40712E-004	...........
	385	96.5	2.24983E-002	1.94722E-002	4.36795E-004	...........
	386	96.75	2.14873E-002	1.85130E-002	4.44087E-004	...........
	387	97	2.05092E-002	1.76009E-002	4.45170E-004	...........
	388	97.25	1.95526E-002	1.67473E-002	4.42003E-004	...........
	389	97.5	1.86178E-002	1.59569E-002	4.49212E-004	...........
	390	97.75	1.77171E-002	1.52336E-002	4.48878E-004	...........
	391	98	1.68612E-002	1.44009E-002	4.48212E-004	...........
	392	98.25	1.60467E-002	1.36399E-002	4.43837E-004	...........
	393	98.5	1.52577E-002	1.29098E-002	4.48170E-004	...........
	394	98.75	1.44831E-002	1.22055E-002	4.47253E-004	...........
	395	99	1.37251E-002	1.15337E-002	4.41045E-004	...........
	396	99.25	1.29919E-002	1.09556E-002	4.45587E-004	...........
	397	99.5	1.22973E-002	1.06077E-002	4.46212E-004	...........
	398	99.75	1.16489E-002	9.34156E-003	4.51086E-004	...........
	399	100	1.10076E-002	8.54732E-003	4.45045E-004	...........
	400	100.25	1.03063E-002	8.04779E-003	4.43962E-004	...........
	401	100.5	9.54998E-003	7.68117E-003	4.45545E-004	...........
	402	100.75	8.82917E-003	7.29000E-003	4.45712E-004	...........
	403	101	8.21657E-003	6.67127E-003	4.38420E-004	...........
	404	101.25	7.69465E-003	5.93504E-003	4.41753E-004	...........
	405	101.5	7.18144E-003	5.10378E-003	4.47878E-004	...........
	406	101.75	6.59948E-003	4.28826E-003	4.46712E-004	...........
	407	102	5.92121E-003	3.50743E-003	4.50045E-004	...........
	408	102.25	5.16745E-003	2.72298E-003	4.42670E-004	...........
	409	102.5	4.37625E-003	1.88432E-003	4.45462E-004	...........
	410	102.75	3.57428E-003	1.13477E-003	4.42253E-004	...........
	411	103	2.77462E-003	4.36468E-004	4.42378E-004	...........
	412	103.25	1.98962E-003	-2.64915E-004	4.46420E-004	...........
	413	103.5	1.23178E-003	-9.22201E-004	4.44670E-004	...........
	414	103.75	5.06131E-004	-1.57452E-003	4.51170E-004	...........
	415	104	-1.90430E-004	-2.24055E-003	4.45712E-004	...........
	416	104.25	-8.66644E-004	-2.94017E-003	4.44837E-004	...........
	417	104.5	-1.53626E-003	-3.68444E-003	4.40545E-004	...........
	418	104.75	-2.21380E-003	-4.36160E-003	4.49462E-004	...........
	419	105	-2.90561E-003	-5.07374E-003	4.43420E-004	...........
	420	105.25	-3.60578E-003	-5.69235E-003	4.41628E-004	...........
	421	105.5	-4.30018E-003	-6.28182E-003	4.46128E-004	...........
	422	105.75	-4.97253E-003	-6.84438E-003	4.48170E-004	...........
	423	106	-5.61285E-003	-7.47045E-003	4.42253E-004	...........
	424	106.25	-6.22725E-003	-8.16570E-003	4.40462E-004	...........
	425	106.5	-6.83773E-003	-8.85376E-003	4.46545E-004	...........
	426	106.75	-7.46768E-003	-9.57884E-003	4.42212E-004	...........
	427	107	-8.12871E-003	-1.03395E-002	4.41045E-004	...........
	428	107.25	-8.82113E-003	-1.10707E-002	4.43837E-004	...........
	429	107.5	-9.53662E-003	-1.16915E-002	4.48961E-004	...........
	430	107.75	-1.02568E-002	-1.23646E-002	4.38420E-004	...........
	431	108	-1.09652E-002	-1.31960E-002	4.43003E-004	...........
	432	108.25	-1.16648E-002	-1.38103E-002	4.52211E-004	...........
	433	108.5	-1.23654E-002	-1.44274E-002	4.46962E-004	...........
	434	108.75	-1.30599E-002	-1.50766E-002	4.46212E-004	...........
	435	109	-1.37340E-002	-1.57150E-002	4.46212E-004	...........
	436	109.25	-1.43913E-002	-1.65712E-002	4.49670E-004	...........
	437	109.5	-1.50558E-002	-1.72714E-002	4.41128E-004	...........
	438	109.75	-1.57482E-002	-1.79243E-002	4.33420E-004	...........
	439	110	-1.64619E-002	-1.85896E-002	4.46670E-004	...........
	440	110.25	-1.71732E-002	-1.93154E-002	4.43837E-004	...........
	441	110.5	-1.78713E-002	-1.99991E-002	4.42170E-004	...........
	442	110.75	-1.85595E-002	-2.05484E-002	4.45837E-004	...........
	443	111	-1.92247E-002	-2.06387E-002	4.51712E-004	...........
	444	111.25	-1.98258E-002	-2.13458E-002	4.43378E-004	...........
	445	111.5	-2.03546E-002	-2.24234E-002	4.41962E-004	...........
	446	111.75	-2.08912E-002	-2.32212E-002	4.48837E-004	...........
	447	112	-2.15317E-002	-2.39466E-002	4.44628E-004	...........
	448	112.25	-2.22859E-002	-2.48830E-002	4.40253E-004	...........
	449	112.5	-2.31155E-002	-2.64002E-002	4.46670E-004	...........
	450	112.75	-2.41052E-002	-3.15081E-002	4.42045E-004	...........
	451	113	-2.55136E-002	-3.15559E-002	4.40837E-004	...........
	452	113.25	-2.74154E-002	-3.23739E-002	4.43378E-004	...........
	453	113.5	-2.94143E-002	-3.27269E-002	4.44462E-004	...........
	454	113.75	-3.09718E-002	-3.09863E-002	4.46295E-004	...........
	455	114	-3.17890E-002	-3.04154E-002	4.41545E-004	...........
	456	114.25	-3.18664E-002	-3.08595E-002	4.39545E-004	...........
	457	114.5	-3.15091E-002	-3.13835E-002	4.44170E-004	...........
	458	114.75	-3.11704E-002	-3.20739E-002	4.36545E-004	...........
	459	115	-3.11470E-002	-3.28868E-002	4.45045E-004	...........
	460	115.25	-3.14789E-002	-3.36079E-002	4.47170E-004	...........
	461	115.5	-3.20547E-002	-3.39144E-002	4.51295E-004	...........
	462	115.75	-3.27156E-002	-3.42600E-002	4.41462E-004	...........
	463	116	-3.33265E-002	-3.46458E-002	4.42837E-004	...........
	464	116.25	-3.38315E-002	-3.50266E-002	4.54503E-004	...........
	465	116.5	-3.42521E-002	-3.54214E-002	4.46295E-004	...........
	466	116.75	-3.46338E-002	-3.57551E-002	4.43128E-004	...........
	467	117	-3.50076E-002	-3.62894E-002	4.53003E-004	...........
	468	117.25	-3.53980E-002	-3.70271E-002	4.41003E-004	...........
	469	117.5	-3.58437E-002	-3.78246E-002	4.46170E-004	...........
	470	117.75	-3.63836E-002	-3.85076E-002	4.46836E-004	...........
	471	118	-3.70182E-002	-3.90760E-002	4.50670E-004	...........
	472	118.25	-3.77042E-002	-3.98467E-002	4.49045E-004	...........
	473	118.5	-3.83994E-002	-4.06112E-002	4.47670E-004	...........
	474	118.75	-3.91001E-002	-4.14451E-002	4.43128E-004	...........
	475	119	-3.98257E-002	-4.22635E-002	4.48128E-004	...........
	476	119.25	-4.05854E-002	-4.29321E-002	4.45045E-004	...........
	477	119.5	-4.13591E-002	-4.34435E-002	4.49295E-004	...........
	478	119.75	-4.20988E-002	-4.37634E-002	4.44170E-004	...........
	479	120	-4.27491E-002	-4.40356E-002	4.44712E-004	...........
	480	120.25	-4.32782E-002	-4.44179E-002	4.39628E-004	...........
	481	120.5	-4.37048E-002	-4.50321E-002	4.43045E-004	...........
	482	120.75	-4.41007E-002	-4.58849E-002	4.50711E-004	...........
	483	121	-4.45580E-002	-4.66431E-002	4.46212E-004	...........
	484	121.25	-4.51305E-002	-4.72673E-002	4.44378E-004	...........
	485	121.5	-4.58004E-002	-4.79812E-002	4.51336E-004	...........
	486	121.75	-4.65152E-002	-4.88978E-002	4.43045E-004	...........
	487	122	-4.72506E-002	-4.96929E-002	4.38420E-004	...........
	488	122.25	-4.80129E-002	-5.04203E-002	4.42795E-004	...........
	489	122.5	-4.87958E-002	-5.10535E-002	4.48670E-004	...........
	490	122.75	-4.95677E-002	-5.16649E-002	4.39503E-004	...........
	491	123	-5.02967E-002	-5.22419E-002	4.36587E-004	...........
	492	123.25	-5.09703E-002	-5.27809E-002	4.42337E-004	...........
	493	123.5	-5.15930E-002	-5.32967E-002	4.41795E-004	...........
	494	123.75	-5.21744E-002	-5.38169E-002	4.40170E-004	...........
	495	124	-5.27243E-002	-5.42829E-002	4.41128E-004	...........
	496	124.25	-5.32499E-002	-5.47704E-002	4.55128E-004	...........
	497	124.5	-5.37577E-002	-5.53284E-002	4.43045E-004	...........
	498	124.75	-5.42598E-002	-5.59154E-002	4.44295E-004	...........
	499	125	-5.47737E-002	-5.64886E-002	4.47920E-004	...........
	500	125.25	-5.53115E-002	-5.70952E-002	4.49420E-004	...........
	501	125.5	-5.58751E-002	-5.77576E-002	4.44503E-004	...........
	502	125.75	-5.64631E-002	-5.83905E-002	4.45628E-004	...........
	503	126	-5.70730E-002	-5.89828E-002	4.43670E-004	...........
	504	126.25	-5.76956E-002	-5.95868E-002	4.46337E-004	...........
	505	126.5	-5.83198E-002	-6.02831E-002	4.46962E-004	...........
	506	126.75	-5.89677E-002	-6.21323E-002	4.46212E-004	...........
	507	127	-5.97072E-002	-6.20977E-002	4.42962E-004	...........
	508	127.25	-6.05563E-002	-6.31183E-002	4.46128E-004	...........
	509	127.5	-6.14350E-002	-6.41470E-002	4.46337E-004	...........
	510	127.75	-6.22265E-002	-6.17022E-002	4.42087E-004	...........
	511	128	-6.27391E-002	-6.17192E-002	4.46087E-004	...........
	512	128.25	-6.28023E-002	-6.23909E-002	4.45420E-004	...........
	513	128.5	-6.25654E-002	-6.32093E-002	4.50003E-004	...........
	514	128.75	-6.24230E-002	-6.39257E-002	4.42920E-004	...........
	515	129	-6.26217E-002	-6.46392E-002	4.47961E-004	...........
	516	129.25	-6.31306E-002	-6.51769E-002	4.52878E-004	...........
	517	129.5	-6.37929E-002	-6.58121E-002	4.46087E-004	...........
	518	129.75	-6.44792E-002	-6.64564E-002	4.43795E-004	...........
	519	130	-6.51406E-002	-6.71477E-002	4.42878E-004	...........
	520	130.25	-6.57854E-002	-6.78099E-002	4.47628E-004	...........
	521	130.5	-6.64334E-002	-6.84948E-002	4.47378E-004	...........
	522	130.75	-6.70931E-002	-6.91588E-002	4.42920E-004	...........
	523	131	-6.77612E-002	-6.97916E-002	4.41003E-004	...........
	524	131.25	-6.84288E-002	-7.04103E-002	4.43087E-004	...........
	525	131.5	-6.90870E-002	-7.10536E-002	4.41128E-004	...........
	526	131.75	-6.97336E-002	-7.17285E-002	4.44253E-004	...........
	527	132	-7.03755E-002	-7.23872E-002	4.44420E-004	...........
	528	132.25	-7.10203E-002	-7.29768E-002	4.39128E-004	...........
	529	132.5	-7.16655E-002	-7.35504E-002	4.40295E-004	...........
	530	132.75	-7.22998E-002	-7.41917E-002	4.40962E-004	...........
	531	133	-7.29194E-002	-7.48247E-002	4.38337E-004	...........
	532	133.25	-7.35329E-002	-7.54494E-002	4.43003E-004	...........
	533	133.5	-7.41518E-002	-7.61658E-002	4.51753E-004	...........
	534	133.75	-7.47870E-002	-7.69616E-002	4.50961E-004	...........
	535	134	-7.54679E-002	-7.85311E-002	4.49170E-004	...........
	536	134.25	-7.62395E-002	-7.85614E-002	4.41420E-004	...........
	537	134.5	-7.70773E-002	-7.89203E-002	4.47837E-004	...........
	538	134.75	-7.78518E-002	-7.92852E-002	4.44170E-004	...........
	539	135	-7.84442E-002	-7.89194E-002	4.40837E-004	...........
	540	135.25	-7.88447E-002	-8.03261E-002	4.42087E-004	...........
	541	135.5	-7.91634E-002	-8.07921E-002	4.46045E-004	...........
	542	135.75	-7.95542E-002	-8.12396E-002	4.48128E-004	...........
	543	136	-8.00802E-002	-8.24055E-002	4.41378E-004	...........
	544	136.25	-8.07356E-002	-8.41230E-002	4.46170E-004	...........
	545	136.5	-8.15595E-002	-8.49589E-002	4.49503E-004	...........
	546	136.75	-8.25759E-002	-8.59552E-002	4.37795E-004	...........
	547	137	-8.36981E-002	-8.69193E-002	4.33420E-004	...........
	548	137.25	-8.47991E-002	-8.74829E-002	4.45045E-004	...........
	549	137.5	-8.57949E-002	-8.79249E-002	4.43045E-004	...........
	550	137.75	-8.66384E-002	-8.83301E-002	4.42462E-004	...........
	551	138	-8.73157E-002	-8.87743E-002	4.43170E-004	...........
	552	138.25	-8.78589E-002	-8.92723E-002	4.41753E-004	...........
	553	138.5	-8.83326E-002	-8.99226E-002	4.40670E-004	...........
	554	138.75	-8.88074E-002	-9.07055E-002	4.38003E-004	...........
	555	139	-8.93412E-002	-9.14779E-002	4.45503E-004	...........
	556	139.25	-8.99563E-002	-9.19450E-002	4.45712E-004	...........
	557	139.5	-9.06191E-002	-9.23520E-002	4.43128E-004	...........
	558	139.75	-9.12603E-002	-9.28750E-002	4.47170E-004	...........
	559	140	-9.18380E-002	-9.34952E-002	4.42378E-004	...........
	560	140.25	-9.23704E-002	-9.40722E-002	4.47712E-004	...........
	561	140.5	-9.29008E-002	-9.46508E-002	4.44420E-004	...........
	562	140.75	-9.34521E-002	-9.52118E-002	4.48337E-004	...........
	563	141	-9.40196E-002	-9.57187E-002	4.48045E-004	...........
	564	141.25	-9.45878E-002	-9.63108E-002	4.47462E-004	...........
	565	141.5	-9.51518E-002	-9.70299E-002	4.42045E-004	...........
	566	141.75	-9.57236E-002	-9.75458E-002	4.43212E-004	...........
	567	142	-9.63097E-002	-9.79486E-002	4.48878E-004	...........
	568	142.25	-9.68892E-002	-9.85035E-002	4.48128E-004	...........
	569	142.5	-9.74397E-002	-9.91174E-002	4.51045E-004	...........
	570	142.75	-9.79722E-002	-9.97583E-002	4.49128E-004	...........
	571	143	-9.85200E-002	-1.00446E-001	4.47503E-004	...........
	572	143.25	-9.91057E-002	-1.01083E-001	4.45753E-004	...........
	573	143.5	-9.97285E-002	-1.01691E-001	4.46670E-004	...........
	574	143.75	-1.00368E-001	-1.02192E-001	4.48337E-004	...........
	575	144	-1.00974E-001	-1.01631E-001	4.40962E-004	...........
	576	144.25	-1.01466E-001	-1.02470E-001	4.47712E-004	...........
	577	144.5	-1.01816E-001	-1.03061E-001	4.45003E-004	...........
	578	144.75	-1.02130E-001	-1.03837E-001	4.42295E-004	...........
	579	145	-1.02549E-001	-1.04920E-001	4.44628E-004	...........
	580	145.25	-1.03150E-001	-1.06021E-001	4.52503E-004	...........
	581	145.5	-1.03929E-001	-1.06536E-001	4.42545E-004	...........
	582	145.75	-1.04796E-001	-1.06552E-001	4.39128E-004	...........
	583	146	-1.05558E-001	-1.05235E-001	4.40962E-004	...........
	584	146.25	-1.06020E-001	-1.06969E-001	4.43753E-004	...........
	585	146.5	-1.06247E-001	-1.09337E-001	4.41212E-004	...........
	586	146.75	-1.06648E-001	-1.11211E-001	4.45337E-004	...........
	587	147	-1.07486E-001	-1.07150E-001	4.39170E-004	...........
	588	147.25	-1.08376E-001	-1.07279E-001	4.42170E-004	...........
	589	147.5	-1.08700E-001	-1.07973E-001	4.41503E-004	...........
	590	147.75	-1.08430E-001	-1.07466E-001	4.45712E-004	...........
	591	148	-1.07991E-001	-1.06611E-001	4.49420E-004	...........
	592	148.25	-1.07712E-001	-1.11707E-001	4.44628E-004	...........
	593	148.5	-1.07924E-001	-1.14197E-001	4.45337E-004	...........
	594	148.75	-1.09117E-001	-1.20972E-001	4.49670E-004	...........
	595	149	-1.11644E-001	-1.26596E-001	4.42378E-004	...........
	596	149.25	-1.15626E-001	-1.37550E-001	4.47128E-004	...........
	597	149.5	-1.21090E-001	-1.43490E-001	4.46920E-004	...........
	598	149.75	-1.27757E-001	-1.46765E-001	4.52086E-004	...........
	599	150	-1.34716E-001	-1.49576E-001	4.45003E-004	...........
	600	150.25	-1.40854E-001	-1.52762E-001	4.49920E-004	...........
	601	150.5	-1.45647E-001	-1.54334E-001	4.42337E-004	...........
	602	150.75	-1.49186E-001	-1.53468E-001	4.46128E-004	...........
	603	151	-1.51575E-001	-1.51149E-001	4.45962E-004	...........
	604	151.25	-1.52658E-001	-1.47306E-001	4.47295E-004	...........
	605	151.5	-1.51919E-001	-1.26603E-001	4.53753E-004	...........
	606	151.75	-1.48142E-001	-1.10017E-001	4.41920E-004	...........
	607	152	-1.40261E-001	-1.08901E-001	4.43253E-004	...........
	608	152.25	-1.29552E-001	-1.09866E-001	4.46836E-004	...........
	609	152.5	-1.19591E-001	-1.11415E-001	4.50503E-004	...........
	610	152.75	-1.13249E-001	-1.12782E-001	4.45795E-004	...........
	611	153	-1.10842E-001	-1.14726E-001	4.48795E-004	...........
	612	153.25	-1.11067E-001	-1.16848E-001	4.48920E-004	...........
	613	153.5	-1.12535E-001	-1.17545E-001	4.40087E-004	...........
	614	153.75	-1.14346E-001	-1.18738E-001	4.45670E-004	...........
	615	154	-1.16011E-001	-1.18820E-001	4.45462E-004	...........
	616	154.25	-1.17328E-001	-1.19961E-001	4.47920E-004	...........
	617	154.5	-1.18316E-001	-1.20825E-001	4.45545E-004	...........
	618	154.75	-1.19134E-001	-1.21806E-001	4.44962E-004	...........
	619	155	-1.19937E-001	-1.22521E-001	4.49045E-004	...........
	620	155.25	-1.20779E-001	-1.23439E-001	4.43628E-004	...........
	621	155.5	-1.21641E-001	-1.24308E-001	4.40962E-004	...........
	622	155.75	-1.22508E-001	-1.25302E-001	4.41003E-004	...........
	623	156	-1.23408E-001	-1.27323E-001	4.45378E-004	...........
	624	156.25	-1.24379E-001	-1.26201E-001	4.42087E-004	...........
	625	156.5	-1.25394E-001	-1.29882E-001	4.48045E-004	...........
	626	156.75	-1.26448E-001	-1.30553E-001	4.52128E-004	...........
	627	157	-1.27635E-001	-1.31347E-001	4.47837E-004	...........
	628	157.25	-1.28936E-001	-1.32237E-001	4.49086E-004	...........
	629	157.5	-1.30169E-001	-1.32931E-001	4.57003E-004	...........
	630	157.75	-1.31222E-001	-1.33790E-001	4.50670E-004	...........
	631	158	-1.32117E-001	-1.34400E-001	4.49462E-004	...........
	632	158.25	-1.32913E-001	-1.35053E-001	4.54961E-004	...........
	633	158.5	-1.33650E-001	-1.35794E-001	4.56003E-004	...........
	634	158.75	-1.34352E-001	-1.36475E-001	4.53670E-004	...........
	635	159	-1.35041E-001	-1.37165E-001	4.50295E-004	...........
	636	159.25	-1.35729E-001	-1.37823E-001	4.50628E-004	...........
	637	159.5	-1.36416E-001	-1.38528E-001	4.52420E-004	...........
	638	159.75	-1.37104E-001	-1.39335E-001	4.49462E-004	...........
	639	160	-1.37773E-001	-1.38557E-001	4.57003E-004	...........
	640	160.25	-1.38388E-001	-1.41786E-001	4.62086E-004	...........
	641	160.5	-1.39044E-001	-1.42750E-001	4.58586E-004	...........
	642	160.75	-1.39929E-001	-1.42875E-001	4.50503E-004	...........
	643	161	-1.41012E-001	-1.43390E-001	4.51503E-004	...........
	644	161.25	-1.42031E-001	-1.44143E-001	4.53670E-004	...........
	645	161.5	-1.42843E-001	-1.45056E-001	4.47837E-004	...........
	646	161.75	-1.43501E-001	-1.44255E-001	4.58795E-004	...........
	647	162	-1.44063E-001	-1.46396E-001	4.58295E-004	...........
	648	162.25	-1.44583E-001	-1.46507E-001	4.49587E-004	...........
	649	162.5	-1.45154E-001	-1.46979E-001	4.49253E-004	...........
	650	162.75	-1.45788E-001	-1.47544E-001	4.48878E-004	...........
	651	163	-1.46413E-001	-1.48339E-001	4.49086E-004	...........
	652	163.25	-1.46995E-001	-1.48237E-001	4.47628E-004	...........
	653	163.5	-1.47545E-001	-1.49733E-001	4.55170E-004	...........
	654	163.75	-1.48101E-001	-1.50247E-001	4.50545E-004	...........
	655	164	-1.48727E-001	-1.50992E-001	4.46836E-004	...........
	656	164.25	-1.49435E-001	-1.51619E-001	4.50670E-004	...........
	657	164.5	-1.50170E-001	-1.52274E-001	4.49086E-004	...........
	658	164.75	-1.50884E-001	-1.52919E-001	4.60420E-004	...........
	659	165	-1.51565E-001	-1.53538E-001	4.49378E-004	...........
	660	165.25	-1.52220E-001	-1.54170E-001	4.51670E-004	...........
	661	165.5	-1.52861E-001	-1.54788E-001	4.52753E-004	...........
	662	165.75	-1.53492E-001	-1.55411E-001	4.44545E-004	...........
	663	166	-1.54118E-001	-1.56066E-001	4.44503E-004	...........
	664	166.25	-1.54745E-001	-1.56699E-001	4.44462E-004	...........
	665	166.5	-1.55375E-001	-1.57268E-001	4.52003E-004	...........
	666	166.75	-1.56003E-001	-1.57904E-001	4.52086E-004	...........
	667	167	-1.56655E-001	-1.60096E-001	4.49503E-004	...........
	668	167.25	-1.57432E-001	-1.60933E-001	4.51420E-004	...........
	669	167.5	-1.58406E-001	-1.61054E-001	4.49295E-004	...........
	670	167.75	-1.59433E-001	-1.60295E-001	4.45503E-004	...........
	671	168	-1.60216E-001	-1.60846E-001	4.49337E-004	...........
	672	168.25	-1.60627E-001	-1.61462E-001	4.50587E-004	...........
	673	168.5	-1.60824E-001	-1.61644E-001	4.49961E-004	...........
	674	168.75	-1.61032E-001	-1.62356E-001	4.51961E-004	...........
	675	169	-1.61355E-001	-1.63114E-001	4.46378E-004	...........
	676	169.25	-1.61803E-001	-1.63531E-001	4.51253E-004	...........
	677	169.5	-1.62344E-001	-1.64024E-001	4.42878E-004	...........
	678	169.75	-1.62913E-001	-1.64323E-001	4.46378E-004	...........
	679	170	-1.63447E-001	-1.64938E-001	4.43753E-004	...........
	680	170.25	-1.63935E-001	-1.65469E-001	4.43045E-004	...........
	681	170.5	-1.64411E-001	-1.65999E-001	4.47337E-004	...........
	682	170.75	-1.64907E-001	-1.66609E-001	4.44128E-004	...........
	683	171	-1.65434E-001	-1.67212E-001	4.43462E-004	...........
	684	171.25	-1.65989E-001	-1.67768E-001	4.46212E-004	...........
	685	171.5	-1.66563E-001	-1.68318E-001	4.52253E-004	...........
	686	171.75	-1.67139E-001	-1.68805E-001	4.48295E-004	...........
	687	172	-1.67701E-001	-1.69176E-001	4.45253E-004	...........
	688	172.25	-1.68227E-001	-1.69578E-001	4.46587E-004	...........
	689	172.5	-1.68707E-001	-1.70023E-001	4.50378E-004	...........
	690	172.75	-1.69152E-001	-1.70638E-001	4.46337E-004	...........
	691	173	-1.69600E-001	-1.71391E-001	4.48003E-004	...........
	692	173.25	-1.70094E-001	-1.71813E-001	4.51670E-004	...........
	693	173.5	-1.70639E-001	-1.72096E-001	4.49003E-004	...........
	694	173.75	-1.71179E-001	-1.72327E-001	4.46337E-004	...........
	695	174	-1.71637E-001	-1.72094E-001	4.48170E-004	...........
	696	174.25	-1.71886E-001	-1.68516E-001	4.47586E-004	...........
	697	174.5	-1.71688E-001	-1.68356E-001	4.47586E-004	...........
	698	174.75	-1.70747E-001	-1.59227E-001	4.46503E-004	...........
	699	175	-1.68699E-001	-1.54159E-001	4.56045E-004	...........
	700	175.25	-1.65494E-001	-1.63493E-001	4.51545E-004	...........
	701	175.5	-1.62465E-001	-1.73180E-001	4.41420E-004	...........
	702	175.75	-1.61870E-001	-1.74006E-001	4.49337E-004	...........
	703	176	-1.64404E-001	-1.73922E-001	4.48670E-004	...........
	704	176.25	-1.68367E-001	-1.74566E-001	4.50337E-004	...........
	705	176.5	-1.71687E-001	-1.74612E-001	4.47337E-004	...........
	706	176.75	-1.73620E-001	-1.75347E-001	4.53420E-004	...........
	707	177	-1.74521E-001	-1.75888E-001	4.50795E-004	...........
	708	177.25	-1.74982E-001	-1.76152E-001	4.46753E-004	...........
	709	177.5	-1.75361E-001	-1.76736E-001	4.49086E-004	...........
	710	177.75	-1.75772E-001	-1.77285E-001	4.51378E-004	...........
	711	178	-1.76224E-001	-1.77858E-001	4.49628E-004	...........
	712	178.25	-1.76719E-001	-1.78354E-001	4.46503E-004	...........
	713	178.5	-1.77243E-001	-1.78800E-001	4.55670E-004	...........
	714	178.75	-1.77771E-001	-1.79301E-001	4.59461E-004	...........
	715	179	-1.78284E-001	-1.79844E-001	4.45378E-004	...........
	716	179.25	-1.78786E-001	-1.80381E-001	4.53378E-004	...........
	717	179.5	-1.79290E-001	-1.80863E-001	4.51003E-004	...........
	718	179.75	-1.79802E-001	-1.81372E-001	4.45795E-004	...........
	719	180	-1.80316E-001	-1.81849E-001	4.44837E-004	...........
	720	180.25	-1.80822E-001	-1.82296E-001	4.50295E-004	...........
	721	180.5	-1.81317E-001	-1.82786E-001	4.48462E-004	...........
	722	180.75	-1.81800E-001	-1.83290E-001	4.45045E-004	...........
	723	181	-1.82278E-001	-1.83748E-001	4.47045E-004	...........
	724	181.25	-1.82756E-001	-1.84208E-001	4.49670E-004	...........
	725	181.5	-1.83234E-001	-1.84682E-001	4.45920E-004	...........
	726	181.75	-1.83707E-001	-1.85126E-001	4.48045E-004	...........
	727	182	-1.84173E-001	-1.85525E-001	4.52586E-004	...........
	728	182.25	-1.84628E-001	-1.85953E-001	4.46753E-004	...........
	729	182.5	-1.85070E-001	-1.86404E-001	4.49503E-004	...........
	730	182.75	-1.85503E-001	-1.86838E-001	4.42670E-004	...........
	731	183	-1.85934E-001	-1.87268E-001	4.46878E-004	...........
	732	183.25	-1.86367E-001	-1.87703E-001	4.41795E-004	...........
	733	183.5	-1.86801E-001	-1.88117E-001	4.46920E-004	...........
	734	183.75	-1.87232E-001	-1.88492E-001	4.44545E-004	...........
	735	184	-1.87655E-001	-1.88886E-001	4.44045E-004	...........
	736	184.25	-1.88067E-001	-1.89337E-001	4.48837E-004	...........
	737	184.5	-1.88473E-001	-1.89788E-001	4.41753E-004	...........
	738	184.75	-1.88884E-001	-1.90150E-001	4.42503E-004	...........
	739	185	-1.89300E-001	-1.90453E-001	4.40170E-004	...........
	740	185.25	-1.89705E-001	-1.90816E-001	4.43962E-004	...........
	741	185.5	-1.90085E-001	-1.91172E-001	4.51170E-004	...........
	742	185.75	-1.90445E-001	-1.91539E-001	4.48128E-004	...........
	743	186	-1.90798E-001	-1.91910E-001	4.38587E-004	...........
	744	186.25	-1.91154E-001	-1.92353E-001	4.45670E-004	...........
	745	186.5	-1.91523E-001	-1.92697E-001	4.47670E-004	...........
	746	186.75	-1.91902E-001	-1.93043E-001	4.46628E-004	...........
	747	187	-1.92283E-001	-1.93377E-001	4.39712E-004	...........
	748	187.25	-1.92652E-001	-1.93669E-001	4.41795E-004	...........
	749	187.5	-1.93001E-001	-1.93914E-001	4.43920E-004	...........
	750	187.75	-1.93310E-001	-1.93423E-001	4.42712E-004	...........
	751	188	-1.93380E-001	-1.85762E-001	4.49920E-004	...........
	752	188.25	-1.92653E-001	-1.83368E-001	4.46420E-004	...........
	753	188.5	-1.90973E-001	-1.98060E-001	4.46253E-004	...........
	754	188.75	-1.89752E-001	-2.00542E-001	4.50253E-004	...........
	755	189	-1.90790E-001	-1.99606E-001	4.50253E-004	...........
	756	189.25	-1.93829E-001	-1.99380E-001	4.47586E-004	...........
	757	189.5	-1.97049E-001	-2.05032E-001	4.46128E-004	...........
	758	189.75	-1.99796E-001	-2.20728E-001	4.50170E-004	...........
	759	190	-2.03382E-001	-2.25279E-001	4.49712E-004	...........
	760	190.25	-2.08952E-001	-2.25796E-001	4.37753E-004	...........
	761	190.5	-2.15558E-001	-2.26882E-001	4.45670E-004	...........
	762	190.75	-2.21152E-001	-2.26549E-001	4.53545E-004	...........
	763	191	-2.24612E-001	-2.24962E-001	4.54086E-004	...........
	764	191.25	-2.26077E-001	-2.25647E-001	4.49920E-004	...........
	765	191.5	-2.26254E-001	-2.24524E-001	4.46503E-004	...........
	766	191.75	-2.25795E-001	-2.20953E-001	4.51628E-004	...........
	767	192	-2.24908E-001	-2.19512E-001	4.49712E-004	...........
	768	192.25	-2.23509E-001	-2.16954E-001	4.46628E-004	...........
	769	192.5	-2.21453E-001	-2.05121E-001	4.54253E-004	...........
	770	192.75	-2.18140E-001	-1.91854E-001	4.55545E-004	...........
	771	193	-2.12631E-001	-1.87726E-001	4.46212E-004	...........
	772	193.25	-2.05084E-001	-1.86665E-001	4.50337E-004	...........
	773	193.5	-1.97332E-001	-1.85868E-001	4.51920E-004	...........
	774	193.75	-1.91406E-001	-1.87999E-001	4.50253E-004	...........
	775	194	-1.88155E-001	-1.90984E-001	4.46836E-004	...........
	776	194.25	-1.87335E-001	-1.90990E-001	4.52045E-004	...........
	777	194.5	-1.88111E-001	-1.92074E-001	4.46337E-004	...........
	778	194.75	-1.89493E-001	-1.92804E-001	4.47545E-004	...........
	779	195	-1.90814E-001	-1.93644E-001	4.55670E-004	...........
	780	195.25	-1.91897E-001	-1.94922E-001	4.52920E-004	...........
	781	195.5	-1.92840E-001	-1.95796E-001	4.49795E-004	...........
	782	195.75	-1.93771E-001	-1.96735E-001	4.45462E-004	...........
	783	196	-1.94727E-001	-1.97475E-001	4.44545E-004	...........
	784	196.25	-1.95667E-001	-1.97968E-001	4.50587E-004	...........
	785	196.5	-1.96526E-001	-1.98331E-001	4.52086E-004	...........
	786	196.75	-1.97251E-001	-1.98754E-001	4.44295E-004	...........
	787	197	-1.97835E-001	-1.99200E-001	4.44753E-004	...........
	788	197.25	-1.98316E-001	-1.99616E-001	4.43045E-004	...........
	789	197.5	-1.98749E-001	-2.00086E-001	4.35712E-004	...........
	790	197.75	-1.99174E-001	-2.00528E-001	4.53336E-004	...........
	791	198	-1.99604E-001	-2.00932E-001	4.53795E-004	...........
	792	198.25	-2.00041E-001	-2.01384E-001	4.40045E-004	...........
	793	198.5	-2.00478E-001	-2.01853E-001	4.42545E-004	...........
	794	198.75	-2.00917E-001	-2.02290E-001	4.49545E-004	...........
	795	199	-2.01359E-001	-2.02690E-001	4.44545E-004	...........
	796	199.25	-2.01801E-001	-2.03096E-001	4.43670E-004	...........
	797	199.5	-2.02232E-001	-2.03449E-001	4.47337E-004	...........
	798	199.75	-2.02646E-001	-2.03776E-001	4.50503E-004	...........
	799	200	-2.03037E-001	-2.04123E-001	4.47712E-004	...........
	800	200.25	-2.03404E-001	-2.04450E-001	4.46753E-004	...........
	801	200.5	-2.03752E-001	-2.04714E-001	4.55670E-004	...........
	802	200.75	-2.04084E-001	-2.05021E-001	4.50753E-004	...........
	803	201	-2.04400E-001	-2.05370E-001	4.49295E-004	...........
	804	201.25	-2.04709E-001	-2.05683E-001	4.53211E-004	...........
	805	201.5	-2.05019E-001	-2.05972E-001	4.48670E-004	...........
	806	201.75	-2.05333E-001	-2.06301E-001	4.42545E-004	...........
	807	202	-2.05647E-001	-2.06618E-001	4.45420E-004	...........
	808	202.25	-2.05961E-001	-2.06944E-001	4.43128E-004	...........
	809	202.5	-2.06277E-001	-2.07247E-001	4.50295E-004	...........
	810	202.75	-2.06594E-001	-2.07587E-001	4.37587E-004	...........
	811	203	-2.06913E-001	-2.07870E-001	4.42920E-004	...........
	812	203.25	-2.07228E-001	-2.08079E-001	4.48337E-004	...........
	813	203.5	-2.07532E-001	-2.08416E-001	4.49462E-004	...........
	814	203.75	-2.07821E-001	-2.08712E-001	4.46587E-004	...........
	815	204	-2.08104E-001	-2.08970E-001	4.47462E-004	...........
	816	204.25	-2.08388E-001	-2.09237E-001	4.49670E-004	...........
	817	204.5	-2.08670E-001	-2.09528E-001	4.49920E-004	...........
	818	204.75	-2.08949E-001	-2.09815E-001	4.49712E-004	...........
	819	205	-2.09227E-001	-2.10072E-001	4.53336E-004	...........
	820	205.25	-2.09505E-001	-2.10347E-001	4.51378E-004	...........
	821	205.5	-2.09782E-001	-2.10686E-001	4.46128E-004	...........
	822	205.75	-2.10063E-001	-2.10999E-001	4.45795E-004	...........
	823	206	-2.10357E-001	-2.11413E-001	4.48587E-004	...........
	824	206.25	-2.10671E-001	-2.11761E-001	4.47795E-004	...........
	825	206.5	-2.11009E-001	-2.12039E-001	4.50795E-004	...........
	826	206.75	-2.11353E-001	-2.12235E-001	4.47920E-004	...........
	827	207	-2.11677E-001	-2.12365E-001	4.49670E-004	...........
	828	207.25	-2.11954E-001	-2.12492E-001	4.46753E-004	...........
	829	207.5	-2.12170E-001	-2.12486E-001	4.52336E-004	...........
	830	207.75	-2.12328E-001	-2.12585E-001	4.45920E-004	...........
	831	208	-2.12437E-001	-2.12735E-001	4.42670E-004	...........
	832	208.25	-2.12528E-001	-2.13029E-001	4.47670E-004	...........
	833	208.5	-2.12637E-001	-2.13167E-001	4.47837E-004	...........
	834	208.75	-2.12787E-001	-2.13419E-001	4.43962E-004	...........
	835	209	-2.12971E-001	-2.13566E-001	4.41003E-004	...........
	836	209.25	-2.13170E-001	-2.13748E-001	4.45253E-004	...........
	837	209.5	-2.13367E-001	-2.13942E-001	4.45170E-004	...........
	838	209.75	-2.13557E-001	-2.14131E-001	4.36837E-004	...........
	839	210	-2.13742E-001	-2.14310E-001	4.44170E-004	...........
	840	210.25	-2.13927E-001	-2.14464E-001	4.44045E-004	...........
	841	210.5	-2.14106E-001	-2.14501E-001	4.47295E-004	...........
	842	210.75	-2.14263E-001	-2.14380E-001	4.50420E-004	...........
	843	211	-2.14372E-001	-2.14372E-001	4.52461E-004	...........
	844	211.25	-2.14419E-001	-2.14400E-001	4.49753E-004	...........
	845	211.5	-2.14421E-001	-2.14461E-001	4.48128E-004	...........
	846	211.75	-2.14417E-001	-2.14587E-001	4.47837E-004	...........
	847	212	-2.14438E-001	-2.14781E-001	4.44003E-004	...........
	848	212.25	-2.14503E-001	-2.14928E-001	4.48545E-004	...........
	849	212.5	-2.14615E-001	-2.15151E-001	4.45128E-004	...........
	850	212.75	-2.14765E-001	-2.15400E-001	4.45378E-004	...........
	851	213	-2.14945E-001	-2.15621E-001	4.41878E-004	...........
	852	213.25	-2.15150E-001	-2.15802E-001	4.47670E-004	...........
	853	213.5	-2.15366E-001	-2.15982E-001	4.51295E-004	...........
	854	213.75	-2.15578E-001	-2.16170E-001	4.53795E-004	...........
	855	214	-2.15779E-001	-2.16332E-001	4.52003E-004	...........
	856	214.25	-2.15968E-001	-2.16534E-001	4.48795E-004	...........
	857	214.5	-2.16151E-001	-2.16708E-001	4.52586E-004	...........
	858	214.75	-2.16331E-001	-2.16839E-001	4.54461E-004	...........
	859	215	-2.16507E-001	-2.17026E-001	4.52003E-004	...........
	860	215.25	-2.16679E-001	-2.17239E-001	4.51336E-004	...........
	861	215.5	-2.16850E-001	-2.17378E-001	4.50461E-004	...........
	862	215.75	-2.17021E-001	-2.17379E-001	4.45753E-004	...........
	863	216	-2.17164E-001	-2.16809E-001	4.47253E-004	...........
	864	216.25	-2.17232E-001	-2.17394E-001	4.48045E-004	...........
	865	216.5	-2.17235E-001	-2.17691E-001	4.52545E-004	...........
	866	216.75	-2.17256E-001	-2.17457E-001	4.44753E-004	...........
	867	217	-2.17341E-001	-2.17597E-001	4.46003E-004	...........
	868	217.25	-2.17449E-001	-2.17740E-001	4.47420E-004	...........
	869	217.5	-2.17539E-001	-2.17704E-001	4.43378E-004	...........
	870	217.75	-2.17609E-001	-2.17606E-001	4.44545E-004	...........
	871	218	-2.17632E-001	-2.16553E-001	4.45045E-004	...........
	872	218.25	-2.17562E-001	-2.17899E-001	4.41712E-004	...........
	873	218.5	-2.17455E-001	-2.18305E-001	4.42420E-004	...........
	874	218.75	-2.17482E-001	-2.18431E-001	4.50711E-004	...........
	875	219	-2.17717E-001	-2.18828E-001	4.48961E-004	...........
	876	219.25	-2.18058E-001	-2.18511E-001	4.44545E-004	...........
	877	219.5	-2.18361E-001	-2.18718E-001	4.44503E-004	...........
	878	219.75	-2.18562E-001	-2.19245E-001	4.48753E-004	...........
	879	220	-2.18711E-001	-2.19441E-001	4.48961E-004	...........
	880	220.25	-2.18888E-001	-2.19411E-001	4.50795E-004	...........
	881	220.5	-2.19096E-001	-2.19518E-001	4.45670E-004	...........
	882	220.75	-2.19283E-001	-2.19562E-001	4.52420E-004	...........
	883	221	-2.19414E-001	-2.19581E-001	4.46920E-004	...........
	884	221.25	-2.19492E-001	-2.19413E-001	4.41420E-004	...........
	885	221.5	-2.19521E-001	-2.19275E-001	4.48670E-004	...........
	886	221.75	-2.19498E-001	-2.19421E-001	4.48170E-004	...........
	887	222	-2.19453E-001	-2.19736E-001	4.52920E-004	...........
	888	222.25	-2.19447E-001	-2.19941E-001	4.57003E-004	...........
	889	222.5	-2.19529E-001	-2.20123E-001	4.54295E-004	...........
	890	222.75	-2.19690E-001	-2.20204E-001	4.50753E-004	...........
	891	223	-2.19876E-001	-2.20245E-001	4.50628E-004	...........
	892	223.25	-2.20042E-001	-2.20395E-001	4.48920E-004	...........
	893	223.5	-2.20176E-001	-2.20712E-001	4.46503E-004	...........
	894	223.75	-2.20309E-001	-2.21033E-001	4.45128E-004	...........
	895	224	-2.20485E-001	-2.21346E-001	4.47128E-004	...........
	896	224.25	-2.20720E-001	-2.21587E-001	4.51920E-004	...........
	897	224.5	-2.20992E-001	-2.21636E-001	4.50420E-004	...........
	898	224.75	-2.21254E-001	-2.21693E-001	4.52461E-004	...........
	899	225	-2.21462E-001	-2.21776E-001	4.53170E-004	...........
	900	225.25	-2.21604E-001	-2.21856E-001	4.56628E-004	...........
	901	225.5	-2.21701E-001	-2.21922E-001	4.47212E-004	...........
	902	225.75	-2.21778E-001	-2.22002E-001	4.50878E-004	...........
	903	226	-2.21849E-001	-2.22076E-001	4.49212E-004	...........
	904	226.25	-2.21921E-001	-2.22138E-001	4.43795E-004	...........
	905	226.5	-2.21993E-001	-2.22168E-001	4.49295E-004	...........
	906	226.75	-2.22059E-001	-2.22165E-001	4.50087E-004	...........
	907	227	-2.22109E-001	-2.22041E-001	4.50878E-004	...........
	908	227.25	-2.22130E-001	-2.22046E-001	4.55336E-004	...........
	909	227.5	-2.22121E-001	-2.22146E-001	4.49670E-004	...........
	910	227.75	-2.22105E-001	-2.22244E-001	4.52503E-004	...........
	911	228	-2.22114E-001	-2.22393E-001	4.42920E-004	...........
	912	228.25	-2.22165E-001	-2.22497E-001	4.43628E-004	...........
	913	228.5	-2.22254E-001	-2.22597E-001	4.45920E-004	...........
	914	228.75	-2.22365E-001	-2.22784E-001	4.49337E-004	...........
	915	229	-2.22493E-001	-2.23174E-001	4.41170E-004	...........
	916	229.25	-2.22648E-001	-2.23234E-001	4.51003E-004	...........
	917	229.5	-2.22834E-001	-2.23229E-001	4.41587E-004	...........
	918	229.75	-2.23014E-001	-2.23214E-001	4.37712E-004	...........
	919	230	-2.23141E-001	-2.23175E-001	4.46920E-004	...........
	920	230.25	-2.23201E-001	-2.23246E-001	4.46045E-004	...........
	921	230.5	-2.23220E-001	-2.23323E-001	4.48378E-004	...........
	922	230.75	-2.23233E-001	-2.23368E-001	4.44587E-004	...........
	923	231	-2.23262E-001	-2.23404E-001	4.49045E-004	...........
	924	231.25	-2.23305E-001	-2.23447E-001	4.44587E-004	...........
	925	231.5	-2.23354E-001	-2.23508E-001	4.45545E-004	...........
	926	231.75	-2.23402E-001	-2.23535E-001	4.40462E-004	...........
	927	232	-2.23448E-001	-2.23542E-001	4.52878E-004	...........
	928	232.25	-2.23490E-001	-2.23622E-001	4.49628E-004	...........
	929	232.5	-2.23527E-001	-2.23665E-001	4.43003E-004	...........
	930	232.75	-2.23567E-001	-2.23695E-001	4.41795E-004	...........
	931	233	-2.23609E-001	-2.23734E-001	4.54795E-004	...........
	932	233.25	-2.23652E-001	-2.23746E-001	4.50670E-004	...........
	933	233.5	-2.23687E-001	-2.23644E-001	4.47586E-004	...........
	934	233.75	-2.23705E-001	-2.23621E-001	4.56003E-004	...........
	935	234	-2.23698E-001	-2.23624E-001	4.52920E-004	...........
	936	234.25	-2.23674E-001	-2.23619E-001	4.53961E-004	...........
	937	234.5	-2.23647E-001	-2.23626E-001	4.45712E-004	...........
	938	234.75	-2.23629E-001	-2.23567E-001	4.53170E-004	...........
	939	235	-2.23617E-001	-2.23571E-001	4.49920E-004	...........
	940	235.25	-2.23604E-001	-2.23616E-001	4.48337E-004	...........
	941	235.5	-2.23596E-001	-2.23726E-001	4.57045E-004	...........
	942	235.75	-2.23609E-001	-2.23882E-001	4.54045E-004	...........
	943	236	-2.23657E-001	-2.23956E-001	4.43837E-004	...........
	944	236.25	-2.23739E-001	-2.23991E-001	4.44628E-004	...........
	945	236.5	-2.23832E-001	-2.24002E-001	4.54086E-004	...........
	946	236.75	-2.23913E-001	-2.24076E-001	4.50545E-004	...........
	947	237	-2.23975E-001	-2.24139E-001	4.55545E-004	...........
EOC	QUANT	-0.2239747	Open Circuit (V)
PSTATMODEL	IQUANT	4	Pstat Model
PSTATSECTION	LABEL	REF600-19025	Pstat Section
PSTATSERIALNO	LABEL	19025	Pstat Serial Number
CTRLMODE	IQUANT	1	Control Mode
IESTAB	IQUANT	0	I/E Stability
CASPEED	IQUANT	1	Control Amp Speed
CONVENTION	IQUANT	1	Current Convention
ICHRANGE	IQUANT	2	Ich Range
ICHRANGEMODE	TOGGLE	F	Ich Auto Range
ICHOFFSETENABLE	TOGGLE	T	Ich Offset Enable
ICHOFFSET	QUANT	0	Ich Offset (V)
ICHFILTER	IQUANT	3	Ich Filter
VCHRANGE	IQUANT	2	Vch Range
VCHRANGEMODE	TOGGLE	F	Vch Auto Range
VCHOFFSETENABLE	TOGGLE	T	Vch Offset Enable
VCHOFFSET	QUANT	0	Vch Offset (V)
VCHFILTER	IQUANT	3	Vch Filter
ACHRANGE	IQUANT	2	Ach Range
ACHOFFSETENABLE	TOGGLE	F	Ach Offset Enable
ACHOFFSET	QUANT	0	Ach Offset (V)
ACHFILTER	IQUANT	1	Ach Filter
IERANGELOWERLIMIT	IQUANT	1	I/E Range Lower Limit
IERANGEMODE	TOGGLE	F	I/E AutoRange
IERANGE	IQUANT	3	I/E Range
POSFEEDENABLE	TOGGLE	F	Positive Feedback IR Comp
POSFEEDRESISTANCE	QUANT	0	Positive Feedback Resistance (ohm)
ACHSELECT	IQUANT	0	Ach Select
CABLEID	IQUANT	13	Cable ID
DCCALDATE	LABEL	2017-4-11	DC Calibration Date
ACCALDATE	LABEL	2017-4-11	AC Calibration Date
THERMOSELECT	IQUANT	1	Thermo Select
FRAMEWORKVERSION	QUANT	6.04	Framework Version
INSTRUMENTVERSION	LABEL	3.04	Instrument Version
ZCURVE	TABLE
	Pt	Time	Freq	Zreal	Zimag	Zsig	Zmod	Zphz	Idc	Vdc	IERange
	#	s	Hz	ohm	ohm	V	ohm		A	V	#
	0	6	100078.1	7966.19	-55189.07	1	55761.04	-81.78645	8.719381E-007	-0.2232316	8
	1	13	63140.62	12409.77	-83282.36	1	84201.86	-81.52481	-2.26111E-006	-0.2232413	8
	2	15	39890.62	16644.23	-131394.6	1	132444.6	-82.78059	7.990835E-007	-0.224904	7
	3	22	25171.88	25973.13	-209037.8	1	210645.2	-82.91725	8.069458E-007	-0.2249009	7
	4	27	15890.62	57272.58	-307863.7	1	313145.6	-79.4616	-1.661186E-006	-0.2211417	7
	5	31	10078.13	100682.3	-457217.3	1	468171.6	-77.58128	1.179628E-006	-0.2251205	7
	6	37	6328.125	112465.3	-704995.9	1	713910.2	-80.9362	-1.671562E-006	-0.2216422	7
	7	43	3984.375	214873.7	-1072668	1	1093978	-78.67261	8.931656E-008	-0.222574	6
	8	51	2527.573	364905.8	-1606684	1	1647601	-77.2042	1.821896E-007	-0.2265145	6
	9	54	1577.524	1023491	-2547935	1	2745816	-68.11495	1.531694E-008	-0.2214826	6
	10	58	998.264	1122971	-3113089	1	3309440	-70.16432	-2.389087E-007	-0.2204374	6
	11	63	627.7902	1658196	-5093524	1	5356641	-71.96735	6.258391E-009	-0.2251161	6
	12	68	397.9953	2499959	-6983950	1	7417907	-70.30478	-4.883329E-012	-0.2230577	5
	13	71	252.4038	3723750	-9.848469E+006	1	1.052894E+007	-69.28817	-1.375583E-011	-0.2230521	5
	14	74	158.3615	5613780	-1.376868E+007	1	1.486913E+007	-67.81825	-7.237108E-011	-0.2230438	5
	15	77	100.4464	7877809	-1.942269E+007	1	2.09595E+007	-67.92261	-7.118539E-011	-0.2230456	5
	16	80	63.3446	1.061766E+007	-2.659318E+007	1	2.863445E+007	-68.23503	2.271836E-012	-0.2230577	5
	17	83	38.42213	1.860569E+007	-3.946985E+007	1	4.363532E+007	-64.76129	-1.479792E-011	-0.2230373	4
	18	86	24.93351	2.296361E+007	-5.257175E+007	1	5.736826E+007	-66.40405	-3.607446E-012	-0.2230476	4
	19	88	15.625	3.723104E+007	-6.885671E+007	1	7.82777E+007	-61.59977	7.486861E-012	-0.223051	4
	20	92	9.93114	4.481036E+007	-1.062431E+008	1	1.153064E+008	-67.13135	-3.067578E-012	-0.2230337	4
	21	96	6.317385	5.972032E+007	-1.500526E+008	1	1.615001E+008	-68.29765	-4.770076E-013	-0.2230503	4
	22	101	3.945707	8.444151E+007	-2.14073E+008	1	2.301252E+008	-68.47314	-1.766406E-012	-0.2230353	3
	23	108	2.504006	1.164453E+008	-3.079497E+008	1	3.292302E+008	-69.28684	-2.230424E-012	-0.2230366	3
	24	116	1.584686	1.632824E+008	-4.412535E+008	1	4.704952E+008	-69.6934	-2.004135E-012	-0.2230064	3
	25	126	0.999041	2.348087E+008	-6.303276E+008	1	6.726426E+008	-69.56871	-1.881626E-012	-0.2230661	3
	26	133	0.633446	3.406627E+008	-8.959159E+008	1	9.584969E+008	-69.18121	-1.599418E-012	-0.2237623	3
	27	144	0.400641	4.399595E+008	-1.179477E+009	1	1.258861E+009	-69.54387	-2.896406E-012	-0.223762	2