EXPLAIN
TAG	EISPOT
TITLE	LABEL	Potentiostatic EIS	Test &Identifier
DATE	LABEL	2017-4-16	Date
TIME	LABEL	15:09:07	Time
NOTES	NOTES	2	&Notes...
	
	
PSTAT	PSTAT	REF600-19025	Potentiostat
VDC	POTEN	0.00000E+000	T	DC &Voltage (V)
FREQINIT	QUANT	1.00000E+005	Initial Fre&q. (Hz)
FREQFINAL	QUANT	1.00000E-001	Final Fre&q. (Hz)
PTSPERDEC	QUANT	5.00000E+000	Points/&decade
VAC	QUANT	2.00000E+001	AC &Voltage (mV rms)
AREA	QUANT	1.00000E+000	&Area (cm^2)
CONDIT	TWOPARAM	F	1.50000E+001	0.00000E+000	Conditionin&g	Time(s)	E(V)
DELAY	TWOPARAM	T	3.00000E+002	0.00000E+000	Init. De&lay	Time(s)	Stab.(mV/s)
SPEED	SELECTOR	2	&Optimize for:
ZGUESS	QUANT	1.00000E+008	E&stimated Z (ohms)
OCVCURVE	TABLE	666
	Pt	T	Vf	Vm	Ach	Over
	#	s	V vs. Ref.	V	V	bits
	0	0.25	-2.11453E-001	-2.11453E-001	3.95153E-004	...........
	1	0.5	-2.11474E-001	-2.12552E-001	3.94611E-004	...........
	2	0.75	-2.11603E-001	-2.13597E-001	3.94319E-004	...........
	3	1	-2.11970E-001	-2.14718E-001	3.92611E-004	...........
	4	1.25	-2.12631E-001	-2.15441E-001	3.93444E-004	...........
	5	1.5	-2.13516E-001	-2.16995E-001	3.94903E-004	...........
	6	1.75	-2.14507E-001	-2.16952E-001	3.92903E-004	...........
	7	2	-2.15509E-001	-2.18844E-001	3.95861E-004	...........
	8	2.25	-2.16487E-001	-2.19752E-001	3.97111E-004	...........
	9	2.5	-2.17486E-001	-2.20738E-001	3.98778E-004	...........
	10	2.75	-2.18537E-001	-2.21706E-001	3.98486E-004	...........
	11	3	-2.19600E-001	-2.22734E-001	3.99777E-004	...........
	12	3.25	-2.20638E-001	-2.23746E-001	3.97486E-004	...........
	13	3.5	-2.21653E-001	-2.24737E-001	4.00236E-004	...........
	14	3.75	-2.22657E-001	-2.25674E-001	3.91736E-004	...........
	15	4	-2.23650E-001	-2.26522E-001	3.94611E-004	...........
	16	4.25	-2.24620E-001	-2.27462E-001	4.02486E-004	...........
	17	4.5	-2.25562E-001	-2.28411E-001	4.03402E-004	...........
	18	4.75	-2.26485E-001	-2.29286E-001	3.95361E-004	...........
	19	5	-2.27401E-001	-2.30192E-001	3.95944E-004	...........
	20	5.25	-2.28314E-001	-2.31160E-001	4.01319E-004	...........
	21	5.5	-2.29227E-001	-2.32011E-001	3.94944E-004	...........
	22	5.75	-2.30140E-001	-2.32906E-001	3.91403E-004	...........
	23	6	-2.31048E-001	-2.33809E-001	3.92778E-004	...........
	24	6.25	-2.31946E-001	-2.34587E-001	3.93278E-004	...........
	25	6.5	-2.32827E-001	-2.35323E-001	3.97486E-004	...........
	26	6.75	-2.33679E-001	-2.36153E-001	3.93444E-004	...........
	27	7	-2.34500E-001	-2.37012E-001	3.98694E-004	...........
	28	7.25	-2.35305E-001	-2.37789E-001	3.97777E-004	...........
	29	7.5	-2.36109E-001	-2.38516E-001	3.99777E-004	...........
	30	7.75	-2.36910E-001	-2.39285E-001	3.99861E-004	...........
	31	8	-2.37696E-001	-2.40042E-001	4.01277E-004	...........
	32	8.25	-2.38467E-001	-2.40845E-001	3.98819E-004	...........
	33	8.5	-2.39232E-001	-2.41604E-001	3.98569E-004	...........
	34	8.75	-2.40004E-001	-2.42594E-001	3.96736E-004	...........
	35	9	-2.40794E-001	-2.43204E-001	3.92528E-004	...........
	36	9.25	-2.41598E-001	-2.43899E-001	3.99069E-004	...........
	37	9.5	-2.42387E-001	-2.44688E-001	3.90944E-004	...........
	38	9.75	-2.43152E-001	-2.45680E-001	3.95069E-004	...........
	39	10	-2.43912E-001	-2.46145E-001	3.90778E-004	...........
	40	10.25	-2.44676E-001	-2.46740E-001	3.88528E-004	...........
	41	10.5	-2.45410E-001	-2.47398E-001	3.99819E-004	...........
	42	10.75	-2.46090E-001	-2.48011E-001	3.91944E-004	...........
	43	11	-2.46727E-001	-2.48643E-001	3.90486E-004	...........
	44	11.25	-2.47350E-001	-2.49326E-001	3.89319E-004	...........
	45	11.5	-2.47979E-001	-2.50046E-001	3.90819E-004	...........
	46	11.75	-2.48626E-001	-2.50762E-001	3.94319E-004	...........
	47	12	-2.49296E-001	-2.51328E-001	3.93653E-004	...........
	48	12.25	-2.49971E-001	-2.51713E-001	3.95319E-004	...........
	49	12.5	-2.50618E-001	-2.52615E-001	3.97444E-004	...........
	50	12.75	-2.51234E-001	-2.53181E-001	3.92028E-004	...........
	51	13	-2.51851E-001	-2.53825E-001	3.91694E-004	...........
	52	13.25	-2.52487E-001	-2.54570E-001	3.88778E-004	...........
	53	13.5	-2.53140E-001	-2.55101E-001	3.95361E-004	...........
	54	13.75	-2.53796E-001	-2.55714E-001	3.96569E-004	...........
	55	14	-2.54438E-001	-2.56256E-001	3.91319E-004	...........
	56	14.25	-2.55055E-001	-2.56830E-001	3.86903E-004	...........
	57	14.5	-2.55646E-001	-2.57404E-001	3.96736E-004	...........
	58	14.75	-2.56220E-001	-2.57922E-001	3.85361E-004	...........
	59	15	-2.56782E-001	-2.58322E-001	3.91153E-004	...........
	60	15.25	-2.57325E-001	-2.59045E-001	3.88819E-004	...........
	61	15.5	-2.57859E-001	-2.59643E-001	3.97527E-004	...........
	62	15.75	-2.58406E-001	-2.60224E-001	3.87944E-004	...........
	63	16	-2.58981E-001	-2.60746E-001	3.92069E-004	...........
	64	16.25	-2.59567E-001	-2.61270E-001	3.95153E-004	...........
	65	16.5	-2.60140E-001	-2.61720E-001	3.93111E-004	...........
	66	16.75	-2.60684E-001	-2.62194E-001	3.94361E-004	...........
	67	17	-2.61198E-001	-2.62681E-001	3.95361E-004	...........
	68	17.25	-2.61688E-001	-2.63152E-001	3.99652E-004	...........
	69	17.5	-2.62168E-001	-2.63699E-001	3.96902E-004	...........
	70	17.75	-2.62649E-001	-2.64147E-001	3.95028E-004	...........
	71	18	-2.63137E-001	-2.64623E-001	3.87736E-004	...........
	72	18.25	-2.63625E-001	-2.65051E-001	3.97527E-004	...........
	73	18.5	-2.64103E-001	-2.65494E-001	3.95194E-004	...........
	74	18.75	-2.64566E-001	-2.65900E-001	3.99694E-004	...........
	75	19	-2.65014E-001	-2.66349E-001	3.96861E-004	...........
	76	19.25	-2.65450E-001	-2.66774E-001	4.00486E-004	...........
	77	19.5	-2.65882E-001	-2.67249E-001	3.94528E-004	...........
	78	19.75	-2.66317E-001	-2.67694E-001	4.00944E-004	...........
	79	20	-2.66758E-001	-2.68121E-001	3.97777E-004	...........
	80	20.25	-2.67202E-001	-2.68477E-001	3.99986E-004	...........
	81	20.5	-2.67638E-001	-2.68888E-001	3.97777E-004	...........
	82	20.75	-2.68056E-001	-2.69269E-001	3.94319E-004	...........
	83	21	-2.68458E-001	-2.69623E-001	3.99402E-004	...........
	84	21.25	-2.68848E-001	-2.70019E-001	3.94444E-004	...........
	85	21.5	-2.69231E-001	-2.70464E-001	3.93944E-004	...........
	86	21.75	-2.69613E-001	-2.70683E-001	3.94944E-004	...........
	87	22	-2.69990E-001	-2.70994E-001	4.00944E-004	...........
	88	22.25	-2.70347E-001	-2.71421E-001	3.91486E-004	...........
	89	22.5	-2.70684E-001	-2.71691E-001	3.87903E-004	...........
	90	22.75	-2.71016E-001	-2.71991E-001	3.90153E-004	...........
	91	23	-2.71344E-001	-2.72365E-001	3.94986E-004	...........
	92	23.25	-2.71672E-001	-2.72805E-001	3.89028E-004	...........
	93	23.5	-2.72009E-001	-2.73085E-001	3.92903E-004	...........
	94	23.75	-2.72362E-001	-2.73466E-001	3.95319E-004	...........
	95	24	-2.72720E-001	-2.73762E-001	3.95444E-004	...........
	96	24.25	-2.73073E-001	-2.74151E-001	3.96361E-004	...........
	97	24.5	-2.73420E-001	-2.74482E-001	4.02527E-004	...........
	98	24.75	-2.73764E-001	-2.74842E-001	3.95528E-004	...........
	99	25	-2.74114E-001	-2.75317E-001	3.91861E-004	...........
	100	25.25	-2.74472E-001	-2.75428E-001	3.95986E-004	...........
	101	25.5	-2.74820E-001	-2.75424E-001	3.96902E-004	...........
	102	25.75	-2.75111E-001	-2.75411E-001	3.99986E-004	...........
	103	26	-2.75313E-001	-2.75963E-001	3.97444E-004	...........
	104	26.25	-2.75468E-001	-2.76367E-001	3.96319E-004	...........
	105	26.5	-2.75661E-001	-2.76567E-001	4.00861E-004	...........
	106	26.75	-2.75925E-001	-2.76620E-001	3.95903E-004	...........
	107	27	-2.76203E-001	-2.76590E-001	3.96402E-004	...........
	108	27.25	-2.76428E-001	-2.76964E-001	3.90653E-004	...........
	109	27.5	-2.76600E-001	-2.77463E-001	3.95986E-004	...........
	110	27.75	-2.76791E-001	-2.78025E-001	4.01527E-004	...........
	111	28	-2.77065E-001	-2.77823E-001	3.94903E-004	...........
	112	28.25	-2.77388E-001	-2.77883E-001	3.96861E-004	...........
	113	28.5	-2.77655E-001	-2.77739E-001	3.98736E-004	...........
	114	28.75	-2.77800E-001	-2.77826E-001	3.97194E-004	...........
	115	29	-2.77847E-001	-2.78224E-001	4.00444E-004	...........
	116	29.25	-2.77883E-001	-2.78372E-001	3.94903E-004	...........
	117	29.5	-2.77977E-001	-2.78429E-001	4.00736E-004	...........
	118	29.75	-2.78133E-001	-2.78944E-001	3.94944E-004	...........
	119	30	-2.78332E-001	-2.79104E-001	3.96528E-004	...........
	120	30.25	-2.78574E-001	-2.79822E-001	3.93569E-004	...........
	121	30.5	-2.78880E-001	-2.80181E-001	3.96361E-004	...........
	122	30.75	-2.79256E-001	-2.80487E-001	4.03027E-004	...........
	123	31	-2.79670E-001	-2.80741E-001	3.96986E-004	...........
	124	31.25	-2.80066E-001	-2.80963E-001	4.05319E-004	...........
	125	31.5	-2.80407E-001	-2.81037E-001	4.00527E-004	...........
	126	31.75	-2.80678E-001	-2.81222E-001	3.96611E-004	...........
	127	32	-2.80889E-001	-2.81383E-001	3.97736E-004	...........
	128	32.25	-2.81060E-001	-2.81524E-001	3.97486E-004	...........
	129	32.5	-2.81214E-001	-2.81637E-001	3.96694E-004	...........
	130	32.75	-2.81362E-001	-2.81863E-001	4.03152E-004	...........
	131	33	-2.81510E-001	-2.82000E-001	3.94486E-004	...........
	132	33.25	-2.81667E-001	-2.82268E-001	3.94444E-004	...........
	133	33.5	-2.81835E-001	-2.82259E-001	3.98319E-004	...........
	134	33.75	-2.82031E-001	-2.83828E-001	3.94361E-004	...........
	135	34	-2.82328E-001	-2.84160E-001	3.97819E-004	...........
	136	34.25	-2.82795E-001	-2.84460E-001	3.98778E-004	...........
	137	34.5	-2.83364E-001	-2.84117E-001	4.01361E-004	...........
	138	34.75	-2.83839E-001	-2.83613E-001	3.99652E-004	...........
	139	35	-2.84056E-001	-2.83337E-001	4.02569E-004	...........
	140	35.25	-2.83997E-001	-2.83406E-001	4.05611E-004	...........
	141	35.5	-2.83779E-001	-2.83033E-001	3.98069E-004	...........
	142	35.75	-2.83538E-001	-2.83288E-001	3.96194E-004	...........
	143	36	-2.83349E-001	-2.82977E-001	3.95944E-004	...........
	144	36.25	-2.83216E-001	-2.82679E-001	3.97194E-004	...........
	145	36.5	-2.83060E-001	-2.80698E-001	3.94653E-004	...........
	146	36.75	-2.82701E-001	-2.79355E-001	3.97861E-004	...........
	147	37	-2.82021E-001	-2.80528E-001	3.91569E-004	...........
	148	37.25	-2.81249E-001	-2.83201E-001	3.92528E-004	...........
	149	37.5	-2.80917E-001	-2.83548E-001	3.96944E-004	...........
	150	37.75	-2.81374E-001	-2.86878E-001	3.95986E-004	...........
	151	38	-2.82412E-001	-2.80467E-001	3.90944E-004	...........
	152	38.25	-2.83293E-001	-2.81188E-001	3.97653E-004	...........
	153	38.5	-2.83347E-001	-2.81877E-001	3.98652E-004	...........
	154	38.75	-2.82734E-001	-2.82607E-001	3.94694E-004	...........
	155	39	-2.82151E-001	-2.81767E-001	3.94528E-004	...........
	156	39.25	-2.81909E-001	-2.80438E-001	3.99694E-004	...........
	157	39.5	-2.81812E-001	-2.83109E-001	3.99986E-004	...........
	158	39.75	-2.81826E-001	-2.86236E-001	3.94236E-004	...........
	159	40	-2.82393E-001	-2.90910E-001	4.00069E-004	...........
	160	40.25	-2.83967E-001	-2.92175E-001	3.98861E-004	...........
	161	40.5	-2.86396E-001	-2.91936E-001	3.99694E-004	...........
	162	40.75	-2.88902E-001	-2.91679E-001	4.02611E-004	...........
	163	41	-2.90706E-001	-2.91448E-001	4.06819E-004	...........
	164	41.25	-2.91570E-001	-2.91285E-001	4.01986E-004	...........
	165	41.5	-2.91746E-001	-2.91103E-001	4.01527E-004	...........
	166	41.75	-2.91599E-001	-2.90976E-001	3.98778E-004	...........
	167	42	-2.91372E-001	-2.90882E-001	4.04027E-004	...........
	168	42.25	-2.91168E-001	-2.90723E-001	4.00444E-004	...........
	169	42.5	-2.91005E-001	-2.90607E-001	4.00986E-004	...........
	170	42.75	-2.90869E-001	-2.90522E-001	3.99111E-004	...........
	171	43	-2.90746E-001	-2.90419E-001	3.98277E-004	...........
	172	43.25	-2.90632E-001	-2.90303E-001	4.00986E-004	...........
	173	43.5	-2.90525E-001	-2.90234E-001	3.94694E-004	...........
	174	43.75	-2.90424E-001	-2.90168E-001	3.97319E-004	...........
	175	44	-2.90330E-001	-2.90060E-001	3.98652E-004	...........
	176	44.25	-2.90242E-001	-2.89949E-001	4.00527E-004	...........
	177	44.5	-2.90155E-001	-2.89875E-001	4.02152E-004	...........
	178	44.75	-2.90064E-001	-2.89802E-001	3.92903E-004	...........
	179	45	-2.89973E-001	-2.89713E-001	3.95528E-004	...........
	180	45.25	-2.89886E-001	-2.89624E-001	3.92569E-004	...........
	181	45.5	-2.89801E-001	-2.89517E-001	3.96778E-004	...........
	182	45.75	-2.89715E-001	-2.89456E-001	4.03402E-004	...........
	183	46	-2.89628E-001	-2.89383E-001	4.00611E-004	...........
	184	46.25	-2.89544E-001	-2.89351E-001	4.01527E-004	...........
	185	46.5	-2.89467E-001	-2.89229E-001	4.09319E-004	...........
	186	46.75	-2.89396E-001	-2.89153E-001	4.06902E-004	...........
	187	47	-2.89324E-001	-2.89142E-001	4.03611E-004	...........
	188	47.25	-2.89253E-001	-2.89063E-001	4.11194E-004	...........
	189	47.5	-2.89186E-001	-2.88993E-001	4.06152E-004	...........
	190	47.75	-2.89125E-001	-2.88928E-001	4.08277E-004	...........
	191	48	-2.89063E-001	-2.88850E-001	4.04986E-004	...........
	192	48.25	-2.88999E-001	-2.88797E-001	4.03736E-004	...........
	193	48.5	-2.88931E-001	-2.88723E-001	4.07111E-004	...........
	194	48.75	-2.88864E-001	-2.88691E-001	4.00736E-004	...........
	195	49	-2.88802E-001	-2.88679E-001	4.02027E-004	...........
	196	49.25	-2.88748E-001	-2.88628E-001	4.03944E-004	...........
	197	49.5	-2.88705E-001	-2.88633E-001	4.05152E-004	...........
	198	49.75	-2.88675E-001	-2.88734E-001	4.05111E-004	...........
	199	50	-2.88666E-001	-2.88916E-001	4.03944E-004	...........
	200	50.25	-2.88696E-001	-2.89044E-001	4.04277E-004	...........
	201	50.5	-2.88771E-001	-2.88987E-001	4.04277E-004	...........
	202	50.75	-2.88864E-001	-2.88891E-001	4.00361E-004	...........
	203	51	-2.88928E-001	-2.88761E-001	4.02861E-004	...........
	204	51.25	-2.88929E-001	-2.88515E-001	3.99777E-004	...........
	205	51.5	-2.88856E-001	-2.88247E-001	3.97819E-004	...........
	206	51.75	-2.88713E-001	-2.88048E-001	4.01069E-004	...........
	207	52	-2.88520E-001	-2.87923E-001	4.09444E-004	...........
	208	52.25	-2.88312E-001	-2.87896E-001	4.02236E-004	...........
	209	52.5	-2.88130E-001	-2.87945E-001	3.97986E-004	...........
	210	52.75	-2.88008E-001	-2.88054E-001	3.98486E-004	...........
	211	53	-2.87962E-001	-2.88291E-001	4.02319E-004	...........
	212	53.25	-2.87999E-001	-2.88555E-001	3.99569E-004	...........
	213	53.5	-2.88114E-001	-2.88674E-001	3.92736E-004	...........
	214	53.75	-2.88280E-001	-2.88628E-001	3.93528E-004	...........
	215	54	-2.88446E-001	-2.88666E-001	3.94694E-004	...........
	216	54.25	-2.88565E-001	-2.88584E-001	3.93944E-004	...........
	217	54.5	-2.88622E-001	-2.88532E-001	3.89194E-004	...........
	218	54.75	-2.88624E-001	-2.88421E-001	3.95736E-004	...........
	219	55	-2.88586E-001	-2.88389E-001	3.98486E-004	...........
	220	55.25	-2.88526E-001	-2.88356E-001	4.02069E-004	...........
	221	55.5	-2.88462E-001	-2.88360E-001	3.96486E-004	...........
	222	55.75	-2.88411E-001	-2.88387E-001	3.98194E-004	...........
	223	56	-2.88382E-001	-2.88419E-001	4.04569E-004	...........
	224	56.25	-2.88375E-001	-2.88372E-001	4.01569E-004	...........
	225	56.5	-2.88380E-001	-2.88313E-001	4.00194E-004	...........
	226	56.75	-2.88379E-001	-2.88360E-001	3.99944E-004	...........
	227	57	-2.88361E-001	-2.87943E-001	3.97611E-004	...........
	228	57.25	-2.88309E-001	-2.87981E-001	3.96069E-004	...........
	229	57.5	-2.88222E-001	-2.88277E-001	3.94528E-004	...........
	230	57.75	-2.87978E-001	-2.79496E-001	3.94194E-004	...........
	231	58	-2.87113E-001	-2.80606E-001	3.95569E-004	...........
	232	58.25	-2.85364E-001	-2.82404E-001	4.00152E-004	...........
	233	58.5	-2.83280E-001	-2.76138E-001	4.03861E-004	...........
	234	58.75	-2.81457E-001	-2.77222E-001	4.03819E-004	...........
	235	59	-2.79888E-001	-2.77924E-001	3.96528E-004	...........
	236	59.25	-2.78634E-001	-2.79057E-001	4.02402E-004	...........
	237	59.5	-2.78037E-001	-2.80134E-001	4.01527E-004	...........
	238	59.75	-2.78218E-001	-2.81470E-001	3.94611E-004	...........
	239	60	-2.78996E-001	-2.83251E-001	3.98569E-004	...........
	240	60.25	-2.80124E-001	-2.83415E-001	3.94819E-004	...........
	241	60.5	-2.81351E-001	-2.83740E-001	3.96611E-004	...........
	242	60.75	-2.82424E-001	-2.84167E-001	4.00902E-004	...........
	243	61	-2.83208E-001	-2.84447E-001	4.02361E-004	...........
	244	61.25	-2.83740E-001	-2.84934E-001	4.01069E-004	...........
	245	61.5	-2.84140E-001	-2.85154E-001	4.04986E-004	...........
	246	61.75	-2.84489E-001	-2.85370E-001	4.04111E-004	...........
	247	62	-2.84810E-001	-2.85527E-001	4.02111E-004	...........
	248	62.25	-2.85099E-001	-2.86261E-001	3.96278E-004	...........
	249	62.5	-2.85383E-001	-2.86269E-001	4.08486E-004	...........
	250	62.75	-2.85685E-001	-2.86374E-001	4.03694E-004	...........
	251	63	-2.85970E-001	-2.86309E-001	3.97194E-004	...........
	252	63.25	-2.86187E-001	-2.86777E-001	4.03027E-004	...........
	253	63.5	-2.86366E-001	-2.87908E-001	3.98194E-004	...........
	254	63.75	-2.86655E-001	-2.89847E-001	3.94653E-004	...........
	255	64	-2.87249E-001	-2.90988E-001	4.01944E-004	...........
	256	64.25	-2.88213E-001	-2.91635E-001	4.04902E-004	...........
	257	64.5	-2.89377E-001	-2.91964E-001	4.04236E-004	...........
	258	64.75	-2.90457E-001	-2.91877E-001	3.99444E-004	...........
	259	65	-2.91241E-001	-2.91739E-001	4.07152E-004	...........
	260	65.25	-2.91669E-001	-2.91526E-001	4.05944E-004	...........
	261	65.5	-2.91796E-001	-2.91322E-001	4.01944E-004	...........
	262	65.75	-2.91734E-001	-2.91466E-001	4.05277E-004	...........
	263	66	-2.91601E-001	-2.91314E-001	4.01569E-004	...........
	264	66.25	-2.91480E-001	-2.91195E-001	3.97569E-004	...........
	265	66.5	-2.91385E-001	-2.91053E-001	3.93486E-004	...........
	266	66.75	-2.91297E-001	-2.91032E-001	4.03152E-004	...........
	267	67	-2.91204E-001	-2.91032E-001	4.00527E-004	...........
	268	67.25	-2.91118E-001	-2.90868E-001	3.97153E-004	...........
	269	67.5	-2.91046E-001	-2.90853E-001	4.01902E-004	...........
	270	67.75	-2.90983E-001	-2.90940E-001	3.98027E-004	...........
	271	68	-2.90932E-001	-2.90841E-001	4.01444E-004	...........
	272	68.25	-2.90899E-001	-2.90821E-001	4.01027E-004	...........
	273	68.5	-2.90878E-001	-2.90824E-001	4.02069E-004	...........
	274	68.75	-2.90856E-001	-2.90747E-001	4.02861E-004	...........
	275	69	-2.90830E-001	-2.90717E-001	3.98611E-004	...........
	276	69.25	-2.90799E-001	-2.90710E-001	3.96111E-004	...........
	277	69.5	-2.90765E-001	-2.90695E-001	4.03069E-004	...........
	278	69.75	-2.90735E-001	-2.90668E-001	4.00694E-004	...........
	279	70	-2.90711E-001	-2.90651E-001	3.98861E-004	...........
	280	70.25	-2.90692E-001	-2.90667E-001	3.94736E-004	...........
	281	70.5	-2.90676E-001	-2.90637E-001	4.06986E-004	...........
	282	70.75	-2.90663E-001	-2.90629E-001	3.96361E-004	...........
	283	71	-2.90653E-001	-2.90627E-001	3.97986E-004	...........
	284	71.25	-2.90643E-001	-2.90606E-001	4.02277E-004	...........
	285	71.5	-2.90631E-001	-2.90509E-001	4.03277E-004	...........
	286	71.75	-2.88657E-001	-1.88216E-001	4.06777E-004	...........
	287	72	-2.77968E-001	-1.61419E-001	4.05152E-004	...........
	288	72.25	-2.52716E-001	-1.60790E-001	4.03236E-004	...........
	289	72.5	-2.18299E-001	-1.60805E-001	4.02527E-004	...........
	290	72.75	-1.87839E-001	-1.60978E-001	4.05527E-004	...........
	291	73	-1.69223E-001	-1.61194E-001	4.06194E-004	...........
	292	73.25	-1.61410E-001	-1.61444E-001	4.02111E-004	...........
	293	73.5	-1.59676E-001	-1.61688E-001	4.06111E-004	...........
	294	73.75	-1.60154E-001	-1.61970E-001	4.01027E-004	...........
	295	74	-1.60964E-001	-1.62341E-001	4.00277E-004	...........
	296	74.25	-1.61573E-001	-1.62757E-001	4.02902E-004	...........
	297	74.5	-1.62004E-001	-1.63218E-001	4.01319E-004	...........
	298	74.75	-1.62379E-001	-1.63707E-001	4.05736E-004	...........
	299	75	-1.62773E-001	-1.64237E-001	3.98569E-004	...........
	300	75.25	-1.63212E-001	-1.64753E-001	4.07986E-004	...........
	301	75.5	-1.63689E-001	-1.65244E-001	4.02236E-004	...........
	302	75.75	-1.64189E-001	-1.65677E-001	4.08277E-004	...........
	303	76	-1.64688E-001	-1.66098E-001	4.05736E-004	...........
	304	76.25	-1.65169E-001	-1.66494E-001	4.00486E-004	...........
	305	76.5	-1.65623E-001	-1.66874E-001	4.05652E-004	...........
	306	76.75	-1.66048E-001	-1.67224E-001	3.98111E-004	...........
	307	77	-1.66449E-001	-1.67569E-001	3.97903E-004	...........
	308	77.25	-1.66828E-001	-1.67907E-001	4.04777E-004	...........
	309	77.5	-1.67189E-001	-1.68196E-001	4.09277E-004	...........
	310	77.75	-1.67531E-001	-1.68446E-001	4.04569E-004	...........
	311	78	-1.67852E-001	-1.68706E-001	4.04319E-004	...........
	312	78.25	-1.68150E-001	-1.69015E-001	4.06527E-004	...........
	313	78.5	-1.68433E-001	-1.69376E-001	4.05444E-004	...........
	314	78.75	-1.68718E-001	-1.69695E-001	4.07652E-004	...........
	315	79	-1.69020E-001	-1.69979E-001	3.98902E-004	...........
	316	79.25	-1.69333E-001	-1.70234E-001	4.03736E-004	...........
	317	79.5	-1.69641E-001	-1.70464E-001	4.00569E-004	...........
	318	79.75	-1.69930E-001	-1.70654E-001	3.97569E-004	...........
	319	80	-1.70190E-001	-1.70821E-001	3.95319E-004	...........
	320	80.25	-1.70419E-001	-1.70946E-001	4.04236E-004	...........
	321	80.5	-1.70617E-001	-1.71067E-001	4.01236E-004	...........
	322	80.75	-1.70784E-001	-1.71162E-001	3.96736E-004	...........
	323	81	-1.70925E-001	-1.71231E-001	3.93653E-004	...........
	324	81.25	-1.71042E-001	-1.71290E-001	3.99777E-004	...........
	325	81.5	-1.71138E-001	-1.71330E-001	4.00319E-004	...........
	326	81.75	-1.71214E-001	-1.71343E-001	4.03611E-004	...........
	327	82	-1.71272E-001	-1.71345E-001	3.96486E-004	...........
	328	82.25	-1.71310E-001	-1.71326E-001	3.99402E-004	...........
	329	82.5	-1.71330E-001	-1.71312E-001	4.03069E-004	...........
	330	82.75	-1.71334E-001	-1.71281E-001	4.02069E-004	...........
	331	83	-1.71325E-001	-1.71235E-001	4.02194E-004	...........
	332	83.25	-1.71305E-001	-1.71185E-001	4.03402E-004	...........
	333	83.5	-1.71274E-001	-1.71132E-001	4.05069E-004	...........
	334	83.75	-1.71234E-001	-1.71084E-001	4.03069E-004	...........
	335	84	-1.71187E-001	-1.71016E-001	4.03402E-004	...........
	336	84.25	-1.71136E-001	-1.70958E-001	4.00111E-004	...........
	337	84.5	-1.71081E-001	-1.70887E-001	3.97819E-004	...........
	338	84.75	-1.71022E-001	-1.70812E-001	4.00777E-004	...........
	339	85	-1.70958E-001	-1.70742E-001	3.95528E-004	...........
	340	85.25	-1.70890E-001	-1.70673E-001	3.99569E-004	...........
	341	85.5	-1.70820E-001	-1.70596E-001	4.03319E-004	...........
	342	85.75	-1.70748E-001	-1.70521E-001	4.03319E-004	...........
	343	86	-1.70676E-001	-1.70442E-001	4.02069E-004	...........
	344	86.25	-1.70601E-001	-1.70348E-001	3.98986E-004	...........
	345	86.5	-1.70523E-001	-1.70256E-001	4.00986E-004	...........
	346	86.75	-1.70441E-001	-1.70164E-001	4.03152E-004	...........
	347	87	-1.70354E-001	-1.70082E-001	4.00819E-004	...........
	348	87.25	-1.70265E-001	-1.69986E-001	4.00569E-004	...........
	349	87.5	-1.70175E-001	-1.69889E-001	4.01486E-004	...........
	350	87.75	-1.70084E-001	-1.69794E-001	4.02361E-004	...........
	351	88	-1.69991E-001	-1.69703E-001	4.07027E-004	...........
	352	88.25	-1.69897E-001	-1.69610E-001	4.06236E-004	...........
	353	88.5	-1.69804E-001	-1.69520E-001	4.08694E-004	...........
	354	88.75	-1.69711E-001	-1.69436E-001	4.04152E-004	...........
	355	89	-1.69619E-001	-1.69347E-001	4.02319E-004	...........
	356	89.25	-1.69529E-001	-1.69255E-001	4.03902E-004	...........
	357	89.5	-1.69441E-001	-1.69170E-001	4.04277E-004	...........
	358	89.75	-1.69353E-001	-1.69091E-001	4.05402E-004	...........
	359	90	-1.69265E-001	-1.69014E-001	4.02944E-004	...........
	360	90.25	-1.69181E-001	-1.68947E-001	4.07736E-004	...........
	361	90.5	-1.69100E-001	-1.68874E-001	3.99819E-004	...........
	362	90.75	-1.69024E-001	-1.68804E-001	4.01986E-004	...........
	363	91	-1.68951E-001	-1.68735E-001	4.07027E-004	...........
	364	91.25	-1.68880E-001	-1.68674E-001	4.12277E-004	...........
	365	91.5	-1.68811E-001	-1.68615E-001	4.05611E-004	...........
	366	91.75	-1.68744E-001	-1.68557E-001	4.00611E-004	...........
	367	92	-1.68681E-001	-1.68496E-001	4.07861E-004	...........
	368	92.25	-1.68620E-001	-1.68443E-001	4.01652E-004	...........
	369	92.5	-1.68561E-001	-1.68390E-001	4.04194E-004	...........
	370	92.75	-1.68504E-001	-1.68337E-001	3.98694E-004	...........
	371	93	-1.68448E-001	-1.68294E-001	4.01194E-004	...........
	372	93.25	-1.68395E-001	-1.68247E-001	4.00986E-004	...........
	373	93.5	-1.68345E-001	-1.68206E-001	4.01736E-004	...........
	374	93.75	-1.68298E-001	-1.68160E-001	4.06652E-004	...........
	375	94	-1.68252E-001	-1.68116E-001	4.02736E-004	...........
	376	94.25	-1.68208E-001	-1.68089E-001	4.06527E-004	...........
	377	94.5	-1.68166E-001	-1.68058E-001	4.02527E-004	...........
	378	94.75	-1.68127E-001	-1.68020E-001	4.04486E-004	...........
	379	95	-1.68091E-001	-1.67969E-001	4.06319E-004	...........
	380	95.25	-1.68055E-001	-1.67944E-001	4.06402E-004	...........
	381	95.5	-1.68019E-001	-1.67914E-001	4.03152E-004	...........
	382	95.75	-1.67982E-001	-1.67885E-001	4.01819E-004	...........
	383	96	-1.67948E-001	-1.67851E-001	4.06652E-004	...........
	384	96.25	-1.67917E-001	-1.67855E-001	4.05611E-004	...........
	385	96.5	-1.67891E-001	-1.67934E-001	4.01111E-004	...........
	386	96.75	-1.67878E-001	-1.67870E-001	4.00611E-004	...........
	387	97	-1.67878E-001	-1.67831E-001	3.97319E-004	...........
	388	97.25	-1.67876E-001	-1.67777E-001	4.02402E-004	...........
	389	97.5	-1.67860E-001	-1.67729E-001	4.04694E-004	...........
	390	97.75	-1.67828E-001	-1.67696E-001	3.99402E-004	...........
	391	98	-1.67786E-001	-1.67653E-001	4.00819E-004	...........
	392	98.25	-1.67742E-001	-1.67688E-001	4.06444E-004	...........
	393	98.5	-1.67709E-001	-1.67767E-001	3.99153E-004	...........
	394	98.75	-1.67697E-001	-1.67765E-001	4.00861E-004	...........
	395	99	-1.67713E-001	-1.68041E-001	4.09069E-004	...........
	396	99.25	-1.67771E-001	-1.68418E-001	4.04611E-004	...........
	397	99.5	-1.67896E-001	-1.68774E-001	4.00402E-004	...........
	398	99.75	-1.68105E-001	-1.68963E-001	4.00194E-004	...........
	399	100	-1.68377E-001	-1.69143E-001	4.00111E-004	...........
	400	100.25	-1.68660E-001	-1.69471E-001	3.95903E-004	...........
	401	100.5	-1.68933E-001	-1.70070E-001	4.00569E-004	...........
	402	100.75	-1.69228E-001	-1.70598E-001	4.05944E-004	...........
	403	101	-1.69595E-001	-1.71225E-001	4.08819E-004	...........
	404	101.25	-1.70058E-001	-1.72009E-001	4.08069E-004	...........
	405	101.5	-1.70616E-001	-1.72908E-001	4.02152E-004	...........
	406	101.75	-1.71278E-001	-1.74059E-001	4.02694E-004	...........
	407	102	-1.72054E-001	-1.74910E-001	4.06361E-004	...........
	408	102.25	-1.72942E-001	-1.76157E-001	4.10486E-004	...........
	409	102.5	-1.73919E-001	-1.77395E-001	4.03986E-004	...........
	410	102.75	-1.74977E-001	-1.78696E-001	4.04694E-004	...........
	411	103	-1.76118E-001	-1.80032E-001	4.06777E-004	...........
	412	103.25	-1.77339E-001	-1.81462E-001	3.99402E-004	...........
	413	103.5	-1.78624E-001	-1.82689E-001	4.01319E-004	...........
	414	103.75	-1.79953E-001	-1.84294E-001	4.09069E-004	...........
	415	104	-1.81313E-001	-1.85638E-001	4.02402E-004	...........
	416	104.25	-1.82708E-001	-1.87371E-001	4.00819E-004	...........
	417	104.5	-1.84144E-001	-1.88434E-001	4.07777E-004	...........
	418	104.75	-1.85592E-001	-1.89605E-001	4.02069E-004	...........
	419	105	-1.87000E-001	-1.91353E-001	4.02569E-004	...........
	420	105.25	-1.88367E-001	-1.92774E-001	4.00611E-004	...........
	421	105.5	-1.89747E-001	-1.94177E-001	3.98527E-004	...........
	422	105.75	-1.91179E-001	-1.96032E-001	3.98069E-004	...........
	423	106	-1.92668E-001	-1.97470E-001	3.99444E-004	...........
	424	106.25	-1.94160E-001	-1.96458E-001	4.02194E-004	...........
	425	106.5	-1.95499E-001	-1.99223E-001	3.99944E-004	...........
	426	106.75	-1.96556E-001	-1.97281E-001	3.98569E-004	...........
	427	107	-1.97058E-001	-1.84998E-001	4.02236E-004	...........
	428	107.25	-1.96564E-001	-2.03989E-001	3.98152E-004	...........
	429	107.5	-1.95406E-001	-1.85878E-001	3.94403E-004	...........
	430	107.75	-1.94582E-001	-2.04213E-001	3.96444E-004	...........
	431	108	-1.94775E-001	-2.02982E-001	3.98736E-004	...........
	432	108.25	-1.96419E-001	-2.07340E-001	3.99319E-004	...........
	433	108.5	-1.99408E-001	-2.08852E-001	4.02111E-004	...........
	434	108.75	-2.02852E-001	-2.10372E-001	3.98902E-004	...........
	435	109	-2.05915E-001	-2.11637E-001	4.00777E-004	...........
	436	109.25	-2.08307E-001	-2.13021E-001	3.96902E-004	...........
	437	109.5	-2.10116E-001	-2.13862E-001	3.95528E-004	...........
	438	109.75	-2.11550E-001	-2.15212E-001	3.93486E-004	...........
	439	110	-2.12789E-001	-2.16398E-001	3.93319E-004	...........
	440	110.25	-2.13953E-001	-2.17529E-001	4.02986E-004	...........
	441	110.5	-2.15115E-001	-2.18874E-001	3.95861E-004	...........
	442	110.75	-2.16299E-001	-2.20123E-001	3.98944E-004	...........
	443	111	-2.17513E-001	-2.21267E-001	4.02069E-004	...........
	444	111.25	-2.18745E-001	-2.22501E-001	3.98152E-004	...........
	445	111.5	-2.19975E-001	-2.23732E-001	3.97194E-004	...........
	446	111.75	-2.21196E-001	-2.24897E-001	4.00736E-004	...........
	447	112	-2.22409E-001	-2.26124E-001	4.00819E-004	...........
	448	112.25	-2.23616E-001	-2.27307E-001	4.04902E-004	...........
	449	112.5	-2.24819E-001	-2.28480E-001	3.99819E-004	...........
	450	112.75	-2.26016E-001	-2.29662E-001	3.94778E-004	...........
	451	113	-2.27206E-001	-2.30832E-001	3.99277E-004	...........
	452	113.25	-2.28388E-001	-2.31931E-001	3.91944E-004	...........
	453	113.5	-2.29557E-001	-2.33033E-001	3.94778E-004	...........
	454	113.75	-2.30707E-001	-2.34176E-001	3.94069E-004	...........
	455	114	-2.31841E-001	-2.35351E-001	4.00152E-004	...........
	456	114.25	-2.32970E-001	-2.36477E-001	3.97694E-004	...........
	457	114.5	-2.34104E-001	-2.37593E-001	3.95694E-004	...........
	458	114.75	-2.35242E-001	-2.38721E-001	3.96528E-004	...........
	459	115	-2.36376E-001	-2.39749E-001	4.06152E-004	...........
	460	115.25	-2.37494E-001	-2.40772E-001	3.99819E-004	...........
	461	115.5	-2.38587E-001	-2.41811E-001	4.00486E-004	...........
	462	115.75	-2.39653E-001	-2.42856E-001	4.04777E-004	...........
	463	116	-2.40699E-001	-2.43860E-001	4.02444E-004	...........
	464	116.25	-2.41734E-001	-2.44914E-001	4.04944E-004	...........
	465	116.5	-2.42765E-001	-2.45909E-001	3.99319E-004	...........
	466	116.75	-2.43790E-001	-2.46845E-001	4.01111E-004	...........
	467	117	-2.44810E-001	-2.48111E-001	4.03027E-004	...........
	468	117.25	-2.45825E-001	-2.48580E-001	4.01986E-004	...........
	469	117.5	-2.46793E-001	-2.48243E-001	3.96736E-004	...........
	470	117.75	-2.47563E-001	-2.47085E-001	3.93361E-004	...........
	471	118	-2.48028E-001	-2.51726E-001	3.95236E-004	...........
	472	118.25	-2.48480E-001	-2.54177E-001	3.97777E-004	...........
	473	118.5	-2.49476E-001	-2.55283E-001	3.99986E-004	...........
	474	118.75	-2.51150E-001	-2.56207E-001	3.95694E-004	...........
	475	119	-2.53055E-001	-2.57083E-001	3.98861E-004	...........
	476	119.25	-2.54726E-001	-2.58235E-001	3.97861E-004	...........
	477	119.5	-2.56045E-001	-2.59110E-001	4.01277E-004	...........
	478	119.75	-2.57120E-001	-2.59572E-001	3.97861E-004	...........
	479	120	-2.58048E-001	-2.60286E-001	4.00111E-004	...........
	480	120.25	-2.58857E-001	-2.60907E-001	3.95694E-004	...........
	481	120.5	-2.59572E-001	-2.61584E-001	3.96069E-004	...........
	482	120.75	-2.60238E-001	-2.62369E-001	3.98736E-004	...........
	483	121	-2.60896E-001	-2.62894E-001	3.95569E-004	...........
	484	121.25	-2.61544E-001	-2.62635E-001	3.97069E-004	...........
	485	121.5	-2.62090E-001	-2.61996E-001	3.93569E-004	...........
	486	121.75	-2.62393E-001	-2.61874E-001	3.93944E-004	...........
	487	122	-2.62412E-001	-2.62112E-001	3.95278E-004	...........
	488	122.25	-2.62280E-001	-2.62724E-001	4.02902E-004	...........
	489	122.5	-2.62221E-001	-2.63566E-001	3.98402E-004	...........
	490	122.75	-2.62405E-001	-2.64708E-001	4.03069E-004	...........
	491	123	-2.62900E-001	-2.65975E-001	4.07111E-004	...........
	492	123.25	-2.63682E-001	-2.66876E-001	4.10986E-004	...........
	493	123.5	-2.64649E-001	-2.67226E-001	4.09527E-004	...........
	494	123.75	-2.65630E-001	-2.67509E-001	4.01944E-004	...........
	495	124	-2.66459E-001	-2.68000E-001	4.07069E-004	...........
	496	124.25	-2.67087E-001	-2.68603E-001	3.96736E-004	...........
	497	124.5	-2.67587E-001	-2.69116E-001	4.01819E-004	...........
	498	124.75	-2.68058E-001	-2.69581E-001	4.02736E-004	...........
	499	125	-2.68542E-001	-2.69893E-001	4.06694E-004	...........
	500	125.25	-2.69024E-001	-2.70401E-001	4.05527E-004	...........
	501	125.5	-2.69485E-001	-2.70958E-001	4.06861E-004	...........
	502	125.75	-2.69939E-001	-2.71459E-001	3.99694E-004	...........
	503	126	-2.70410E-001	-2.71966E-001	4.01444E-004	...........
	504	126.25	-2.70905E-001	-2.72505E-001	4.01777E-004	...........
	505	126.5	-2.71416E-001	-2.73022E-001	3.97569E-004	...........
	506	126.75	-2.71935E-001	-2.73512E-001	3.97194E-004	...........
	507	127	-2.72454E-001	-2.74032E-001	4.00819E-004	...........
	508	127.25	-2.72970E-001	-2.74547E-001	4.02777E-004	...........
	509	127.5	-2.73481E-001	-2.75011E-001	4.01027E-004	...........
	510	127.75	-2.73986E-001	-2.75406E-001	3.98569E-004	...........
	511	128	-2.74474E-001	-2.75828E-001	3.98444E-004	...........
	512	128.25	-2.74937E-001	-2.76253E-001	4.01861E-004	...........
	513	128.5	-2.75376E-001	-2.76680E-001	4.04402E-004	...........
	514	128.75	-2.75802E-001	-2.77117E-001	4.05277E-004	...........
	515	129	-2.76227E-001	-2.77588E-001	3.98319E-004	...........
	516	129.25	-2.76656E-001	-2.77987E-001	3.92778E-004	...........
	517	129.5	-2.77091E-001	-2.78373E-001	3.98778E-004	...........
	518	129.75	-2.77521E-001	-2.78752E-001	4.02111E-004	...........
	519	130	-2.77936E-001	-2.79092E-001	4.03486E-004	...........
	520	130.25	-2.78331E-001	-2.79456E-001	3.99194E-004	...........
	521	130.5	-2.78706E-001	-2.79790E-001	3.98778E-004	...........
	522	130.75	-2.79069E-001	-2.80208E-001	3.99611E-004	...........
	523	131	-2.79428E-001	-2.80509E-001	3.99236E-004	...........
	524	131.25	-2.79784E-001	-2.80777E-001	4.04402E-004	...........
	525	131.5	-2.80131E-001	-2.81096E-001	4.03694E-004	...........
	526	131.75	-2.80458E-001	-2.81397E-001	3.99111E-004	...........
	527	132	-2.80768E-001	-2.81640E-001	4.03152E-004	...........
	528	132.25	-2.81066E-001	-2.81956E-001	4.04277E-004	...........
	529	132.5	-2.81357E-001	-2.82286E-001	3.99069E-004	...........
	530	132.75	-2.81647E-001	-2.82557E-001	3.99444E-004	...........
	531	133	-2.81942E-001	-2.82829E-001	4.00444E-004	...........
	532	133.25	-2.82237E-001	-2.83104E-001	4.03319E-004	...........
	533	133.5	-2.82526E-001	-2.83344E-001	4.01319E-004	...........
	534	133.75	-2.82803E-001	-2.83582E-001	4.02944E-004	...........
	535	134	-2.83067E-001	-2.83847E-001	4.03111E-004	...........
	536	134.25	-2.83323E-001	-2.84108E-001	4.00069E-004	...........
	537	134.5	-2.83575E-001	-2.84343E-001	4.00319E-004	...........
	538	134.75	-2.83826E-001	-2.84575E-001	4.04569E-004	...........
	539	135	-2.84075E-001	-2.84798E-001	4.02236E-004	...........
	540	135.25	-2.84316E-001	-2.84982E-001	3.98319E-004	...........
	541	135.5	-2.84548E-001	-2.85268E-001	4.04611E-004	...........
	542	135.75	-2.84775E-001	-2.85553E-001	4.07736E-004	...........
	543	136	-2.85010E-001	-2.85827E-001	4.11111E-004	...........
	544	136.25	-2.85259E-001	-2.85987E-001	4.02694E-004	...........
	545	136.5	-2.85513E-001	-2.86178E-001	4.01402E-004	...........
	546	136.75	-2.85752E-001	-2.86352E-001	3.99361E-004	...........
	547	137	-2.85966E-001	-2.86531E-001	4.00486E-004	...........
	548	137.25	-2.86158E-001	-2.86666E-001	4.05486E-004	...........
	549	137.5	-2.86336E-001	-2.86851E-001	4.02486E-004	...........
	550	137.75	-2.86506E-001	-2.87090E-001	3.98736E-004	...........
	551	138	-2.86681E-001	-2.87361E-001	3.96361E-004	...........
	552	138.25	-2.86874E-001	-2.87568E-001	3.96652E-004	...........
	553	138.5	-2.87090E-001	-2.87824E-001	4.03777E-004	...........
	554	138.75	-2.87320E-001	-2.87991E-001	4.01694E-004	...........
	555	139	-2.87550E-001	-2.88155E-001	4.04277E-004	...........
	556	139.25	-2.87766E-001	-2.88275E-001	3.98194E-004	...........
	557	139.5	-2.87957E-001	-2.88427E-001	4.02527E-004	...........
	558	139.75	-2.88124E-001	-2.88571E-001	4.05277E-004	...........
	559	140	-2.88273E-001	-2.88650E-001	4.05694E-004	...........
	560	140.25	-2.88410E-001	-2.88779E-001	4.06611E-004	...........
	561	140.5	-2.88537E-001	-2.88947E-001	4.08527E-004	...........
	562	140.75	-2.88661E-001	-2.89064E-001	4.05152E-004	...........
	563	141	-2.88788E-001	-2.89171E-001	4.05527E-004	...........
	564	141.25	-2.88918E-001	-2.89332E-001	4.07819E-004	...........
	565	141.5	-2.89049E-001	-2.89473E-001	4.02736E-004	...........
	566	141.75	-2.89181E-001	-2.89574E-001	4.00694E-004	...........
	567	142	-2.89314E-001	-2.89689E-001	4.01777E-004	...........
	568	142.25	-2.89444E-001	-2.89834E-001	3.99319E-004	...........
	569	142.5	-2.89569E-001	-2.89952E-001	4.04194E-004	...........
	570	142.75	-2.89692E-001	-2.90045E-001	4.01111E-004	...........
	571	143	-2.89814E-001	-2.90198E-001	4.02944E-004	...........
	572	143.25	-2.89935E-001	-2.90308E-001	4.04027E-004	...........
	573	143.5	-2.90055E-001	-2.90423E-001	3.95861E-004	...........
	574	143.75	-2.90177E-001	-2.90564E-001	3.98652E-004	...........
	575	144	-2.90299E-001	-2.90691E-001	4.02069E-004	...........
	576	144.25	-2.90423E-001	-2.90780E-001	4.05694E-004	...........
	577	144.5	-2.90546E-001	-2.90875E-001	3.99694E-004	...........
	578	144.75	-2.90662E-001	-2.91002E-001	4.04652E-004	...........
	579	145	-2.90772E-001	-2.91083E-001	4.04277E-004	...........
	580	145.25	-2.90877E-001	-2.91157E-001	4.00736E-004	...........
	581	145.5	-2.90977E-001	-2.91274E-001	4.00152E-004	...........
	582	145.75	-2.91073E-001	-2.91385E-001	4.02194E-004	...........
	583	146	-2.91168E-001	-2.91461E-001	4.06152E-004	...........
	584	146.25	-2.91264E-001	-2.91500E-001	4.02777E-004	...........
	585	146.5	-2.91355E-001	-2.91532E-001	4.06444E-004	...........
	586	146.75	-2.91434E-001	-2.91802E-001	4.01152E-004	...........
	587	147	-2.91517E-001	-2.91963E-001	4.02152E-004	...........
	588	147.25	-2.91622E-001	-2.91844E-001	4.00236E-004	...........
	589	147.5	-2.91738E-001	-2.91969E-001	4.02319E-004	...........
	590	147.75	-2.91837E-001	-2.92157E-001	4.01986E-004	...........
	591	148	-2.91929E-001	-2.92615E-001	4.04361E-004	...........
	592	148.25	-2.92056E-001	-2.92716E-001	4.02444E-004	...........
	593	148.5	-2.92253E-001	-2.93349E-001	4.02111E-004	...........
	594	148.75	-2.92508E-001	-2.92858E-001	4.08819E-004	...........
	595	149	-2.92753E-001	-2.92776E-001	4.03819E-004	...........
	596	149.25	-2.92897E-001	-2.92683E-001	4.00069E-004	...........
	597	149.5	-2.92915E-001	-2.93047E-001	4.07486E-004	...........
	598	149.75	-2.92878E-001	-2.92903E-001	4.05069E-004	...........
	599	150	-2.92866E-001	-2.92935E-001	4.00819E-004	...........
	600	150.25	-2.92888E-001	-2.93013E-001	4.03819E-004	...........
	601	150.5	-2.92922E-001	-2.93029E-001	4.06736E-004	...........
	602	150.75	-2.92957E-001	-2.93049E-001	4.05402E-004	...........
	603	151	-2.92992E-001	-2.93117E-001	4.07111E-004	...........
	604	151.25	-2.93028E-001	-2.93203E-001	4.02069E-004	...........
	605	151.5	-2.93072E-001	-2.93323E-001	4.13319E-004	...........
	606	151.75	-2.93130E-001	-2.93244E-001	4.04319E-004	...........
	607	152	-2.93195E-001	-2.93503E-001	4.08944E-004	...........
	608	152.25	-2.93266E-001	-2.93521E-001	4.12611E-004	...........
	609	152.5	-2.93341E-001	-2.93419E-001	4.04361E-004	...........
	610	152.75	-2.93402E-001	-2.93147E-001	4.10236E-004	...........
	611	153	-2.93412E-001	-2.93207E-001	4.04486E-004	...........
	612	153.25	-2.93364E-001	-2.93325E-001	4.04152E-004	...........
	613	153.5	-2.93296E-001	-2.92962E-001	4.08777E-004	...........
	614	153.75	-2.93235E-001	-2.93139E-001	4.13027E-004	...........
	615	154	-2.93172E-001	-2.92718E-001	4.04194E-004	...........
	616	154.25	-2.93091E-001	-2.92885E-001	4.05611E-004	...........
	617	154.5	-2.93003E-001	-2.93103E-001	4.04194E-004	...........
	618	154.75	-2.92925E-001	-2.91970E-001	4.02819E-004	...........
	619	155	-2.92821E-001	-2.91977E-001	4.02986E-004	...........
	620	155.25	-2.92587E-001	-2.90067E-001	3.98861E-004	...........
	621	155.5	-2.92130E-001	-2.89694E-001	3.96194E-004	...........
	622	155.75	-2.91483E-001	-2.91296E-001	4.02236E-004	...........
	623	156	-2.90744E-001	-2.82895E-001	3.94236E-004	...........
	624	156.25	-2.89682E-001	-2.82635E-001	4.00736E-004	...........
	625	156.5	-2.87997E-001	-2.86348E-001	4.01736E-004	...........
	626	156.75	-2.86238E-001	-2.87961E-001	4.02444E-004	...........
	627	157	-2.85476E-001	-2.89961E-001	4.00986E-004	...........
	628	157.25	-2.86159E-001	-2.95213E-001	4.02444E-004	...........
	629	157.5	-2.88001E-001	-2.94221E-001	3.98611E-004	...........
	630	157.75	-2.90403E-001	-2.96146E-001	4.00527E-004	...........
	631	158	-2.92667E-001	-2.95836E-001	3.98569E-004	...........
	632	158.25	-2.94359E-001	-2.97235E-001	4.00527E-004	...........
	633	158.5	-2.95467E-001	-2.96560E-001	3.97611E-004	...........
	634	158.75	-2.96165E-001	-2.97065E-001	4.00152E-004	...........
	635	159	-2.96570E-001	-2.96334E-001	3.96111E-004	...........
	636	159.25	-2.96740E-001	-2.96623E-001	3.93944E-004	...........
	637	159.5	-2.96743E-001	-2.96752E-001	3.93694E-004	...........
	638	159.75	-2.96688E-001	-2.96692E-001	3.99861E-004	...........
	639	160	-2.96657E-001	-2.96542E-001	4.01069E-004	...........
	640	160.25	-2.96647E-001	-2.96405E-001	3.97194E-004	...........
	641	160.5	-2.96614E-001	-2.96296E-001	4.02569E-004	...........
	642	160.75	-2.96538E-001	-2.96221E-001	4.03652E-004	...........
	643	161	-2.96436E-001	-2.96138E-001	4.02486E-004	...........
	644	161.25	-2.96329E-001	-2.96025E-001	4.09736E-004	...........
	645	161.5	-2.96230E-001	-2.96001E-001	4.08236E-004	...........
	646	161.75	-2.96142E-001	-2.95978E-001	4.04986E-004	...........
	647	162	-2.96069E-001	-2.95896E-001	4.02861E-004	...........
	648	162.25	-2.96006E-001	-2.95668E-001	4.00819E-004	...........
	649	162.5	-2.95939E-001	-2.95743E-001	4.03277E-004	...........
	650	162.75	-2.95862E-001	-2.95761E-001	4.00694E-004	...........
	651	163	-2.95794E-001	-2.95741E-001	4.01986E-004	...........
	652	163.25	-2.95755E-001	-2.95659E-001	4.02194E-004	...........
	653	163.5	-2.95729E-001	-2.95474E-001	4.05694E-004	...........
	654	163.75	-2.95691E-001	-2.95498E-001	4.12194E-004	...........
	655	164	-2.95630E-001	-2.95488E-001	4.10611E-004	...........
	656	164.25	-2.95567E-001	-2.95567E-001	4.12402E-004	...........
	657	164.5	-2.95529E-001	-2.95656E-001	4.09111E-004	...........
	658	164.75	-2.95532E-001	-2.95674E-001	4.08819E-004	...........
	659	165	-2.95568E-001	-2.95676E-001	4.07527E-004	...........
	660	165.25	-2.95614E-001	-2.95696E-001	4.04402E-004	...........
	661	165.5	-2.95653E-001	-2.95739E-001	4.06444E-004	...........
	662	165.75	-2.95681E-001	-2.95768E-001	4.03027E-004	...........
	663	166	-2.95709E-001	-2.95890E-001	4.09194E-004	...........
	664	166.25	-2.95747E-001	-2.95986E-001	4.04069E-004	...........
	665	166.5	-2.95802E-001	-2.95928E-001	4.04111E-004	...........
EOC	QUANT	-0.295802	Open Circuit (V)
PSTATMODEL	IQUANT	4	Pstat Model
PSTATSECTION	LABEL	REF600-19025	Pstat Section
PSTATSERIALNO	LABEL	19025	Pstat Serial Number
CTRLMODE	IQUANT	1	Control Mode
IESTAB	IQUANT	0	I/E Stability
CASPEED	IQUANT	1	Control Amp Speed
CONVENTION	IQUANT	1	Current Convention
ICHRANGE	IQUANT	2	Ich Range
ICHRANGEMODE	TOGGLE	F	Ich Auto Range
ICHOFFSETENABLE	TOGGLE	T	Ich Offset Enable
ICHOFFSET	QUANT	0	Ich Offset (V)
ICHFILTER	IQUANT	3	Ich Filter
VCHRANGE	IQUANT	2	Vch Range
VCHRANGEMODE	TOGGLE	F	Vch Auto Range
VCHOFFSETENABLE	TOGGLE	T	Vch Offset Enable
VCHOFFSET	QUANT	0	Vch Offset (V)
VCHFILTER	IQUANT	3	Vch Filter
ACHRANGE	IQUANT	2	Ach Range
ACHOFFSETENABLE	TOGGLE	F	Ach Offset Enable
ACHOFFSET	QUANT	0	Ach Offset (V)
ACHFILTER	IQUANT	3	Ach Filter
IERANGELOWERLIMIT	IQUANT	1	I/E Range Lower Limit
IERANGEMODE	TOGGLE	F	I/E AutoRange
IERANGE	IQUANT	3	I/E Range
POSFEEDENABLE	TOGGLE	F	Positive Feedback IR Comp
POSFEEDRESISTANCE	QUANT	0	Positive Feedback Resistance (ohm)
ACHSELECT	IQUANT	0	Ach Select
CABLEID	IQUANT	13	Cable ID
DCCALDATE	LABEL	2017-4-11	DC Calibration Date
ACCALDATE	LABEL	2017-4-11	AC Calibration Date
THERMOSELECT	IQUANT	1	Thermo Select
FRAMEWORKVERSION	QUANT	6.04	Framework Version
INSTRUMENTVERSION	LABEL	3.04	Instrument Version
ZCURVE	TABLE
	Pt	Time	Freq	Zreal	Zimag	Zsig	Zmod	Zphz	Idc	Vdc	IERange
	#	s	Hz	ohm	ohm	V	ohm	ï¿½	A	V	#
	0	5	100078.1	12967.23	-177563.3	1	178036.1	-85.82317	-1.3122E-006	-0.2950992	8
	1	12	63140.62	36588.93	-259434	1	262001.4	-81.97231	-1.720543E-006	-0.2950977	8
	2	14	39890.62	37185.58	-423669.9	1	425298.7	-84.98399	1.27939E-006	-0.2956664	7
	3	23	25171.88	77415.05	-600815.6	1	605782.6	-82.6579	-1.354941E-006	-0.2928865	7
	4	28	15890.62	133441	-1095245	1	1103344	-83.05351	-1.559723E-006	-0.2929598	7
	5	32	10078.13	198230.8	-1550984	1	1563600	-82.71653	1.359E-006	-0.2966143	7
	6	40	6328.125	351723.6	-2382132	1	2407959	-81.60092	1.284161E-006	-0.2956684	7
	7	49	3984.375	505161.1	-3459213	1	3495904	-81.69162	2.190755E-007	-0.2969522	6
	8	56	2527.573	851406.4	-5557432	1	5622272	-81.28993	8.187448E-008	-0.2941311	6
	10	68	998.264	-87839.52	-1.273217E+007	1	1.273247E+007	-90.39528	8.005722E-008	-0.2941266	6
	11	72	627.7902	8189185	-1.619427E+007	1	1.81471E+007	-63.175	1.452498E-007	-0.29522	6
	12	79	397.9953	6764272	-2.640517E+007	1	2.725781E+007	-75.6314	-1.166869E-011	-0.2947324	5
	13	86	252.4038	1.097279E+007	-3.733092E+007	1	3.891014E+007	-73.6202	-5.226317E-011	-0.2947209	5
	14	89	158.3615	1.737294E+007	-5.650284E+007	1	5.911337E+007	-72.9089	1.787856E-011	-0.2947278	5
	15	92	100.4464	2.711049E+007	-7.607268E+007	1	8.07591E+007	-70.38515	-1.739505E-012	-0.2947298	5
	16	95	63.3446	5.230378E+007	-1.151674E+008	1	1.26488E+008	-65.57462	2.146271E-011	-0.2947248	5
	18	102	24.93351	8.737572E+007	-2.203822E+008	1	2.370714E+008	-68.37298	-5.822847E-012	-0.2947069	4
	20	109	9.93114	1.497671E+008	-4.579939E+008	1	4.818595E+008	-71.89191	-6.146477E-012	-0.2946998	4
	21	113	6.317385	9.554121E+006	-9276722	1	1.331686E+007	-44.15603	-4.34076E-010	-0.2947177	4
	22	120	3.945707	9370489	-1.123445E+007	1	1.462938E+007	-50.169	-3.071855E-010	-0.2946855	3
	23	126	2.504006	1.037936E+007	-1.457536E+007	1	1.789335E+007	-54.5447	-2.407833E-010	-0.2946905	3
	24	133	1.584686	1.183302E+007	-1.932532E+007	1	2.266028E+007	-58.52058	-2.185178E-010	-0.2946588	3
	26	150	0.633446	1.8735E+009	-2.953683E+009	1	3.497748E+009	-57.61334	-1.15356E-012	-0.2954308	3
	27	162	0.400641	2.727397E+009	-4.340162E+009	1	5.125983E+009	-57.85438	-1.422144E-013	-0.295437	2
	28	179	0.2520161	4.214802E+009	-5.649936E+009	1	7.048853E+009	-53.27739	1.057054E-013	-0.2954336	2
	29	205	0.1588983	6.334074E+009	-7.010366E+009	1	9.448054E+009	-47.90125	2.056922E-013	-0.2954376	2
	30	243	0.1001603	1.01107E+010	-8.015828E+009	1	1.290271E+010	-38.4076	4.965878E-013	-0.295434	2