EXPLAIN
TAG	EISPOT
TITLE	LABEL	Potentiostatic EIS	Test &Identifier
DATE	LABEL	2017-4-15	Date
TIME	LABEL	14:20:51	Time
NOTES	NOTES	2	&Notes...
	
	
PSTAT	PSTAT	REF600-19025	Potentiostat
VDC	POTEN	0.00000E+000	T	DC &Voltage (V)
FREQINIT	QUANT	1.00000E+005	Initial Fre&q. (Hz)
FREQFINAL	QUANT	1.00000E-001	Final Fre&q. (Hz)
PTSPERDEC	QUANT	5.00000E+000	Points/&decade
VAC	QUANT	2.00000E+001	AC &Voltage (mV rms)
AREA	QUANT	1.00000E+000	&Area (cm^2)
CONDIT	TWOPARAM	F	1.50000E+001	0.00000E+000	Conditionin&g	Time(s)	E(V)
DELAY	TWOPARAM	T	3.00000E+002	0.00000E+000	Init. De&lay	Time(s)	Stab.(mV/s)
SPEED	SELECTOR	2	&Optimize for:
ZGUESS	QUANT	1.00000E+008	E&stimated Z (ohms)
OCVCURVE	TABLE	1200
	Pt	T	Vf	Vm	Ach	Over
	#	s	V vs. Ref.	V	V	bits
	0	0.25	1.83442E-001	1.83442E-001	5.87918E-004	...........
	1	0.5	1.83435E-001	1.83071E-001	5.93751E-004	...........
	2	0.75	1.83393E-001	1.82781E-001	5.93959E-004	...........
	3	1	1.83276E-001	1.82468E-001	5.95793E-004	...........
	4	1.25	1.83072E-001	1.82178E-001	5.96334E-004	...........
	5	1.5	1.82805E-001	1.81866E-001	5.96501E-004	...........
	6	1.75	1.82508E-001	1.81604E-001	5.97001E-004	...........
	7	2	1.82206E-001	1.81342E-001	5.95793E-004	...........
	8	2.25	1.81909E-001	1.80867E-001	5.92751E-004	...........
	9	2.5	1.81609E-001	1.80671E-001	5.85251E-004	...........
	10	2.75	1.81292E-001	1.80087E-001	5.92584E-004	...........
	11	3	1.80953E-001	1.79891E-001	5.91459E-004	...........
	12	3.25	1.80598E-001	1.79667E-001	5.98251E-004	...........
	13	3.5	1.80257E-001	1.79517E-001	5.96126E-004	...........
	14	3.75	1.79958E-001	1.79140E-001	6.02292E-004	...........
	15	4	1.79695E-001	1.78819E-001	5.97376E-004	...........
	16	4.25	1.79437E-001	1.78539E-001	6.00459E-004	...........
	17	4.5	1.79159E-001	1.78252E-001	5.92876E-004	...........
	18	4.75	1.78866E-001	1.77966E-001	5.96209E-004	...........
	19	5	1.78569E-001	1.77678E-001	5.94251E-004	...........
	20	5.25	1.78277E-001	1.77392E-001	5.95668E-004	...........
	21	5.5	1.77987E-001	1.77094E-001	6.02292E-004	...........
	22	5.75	1.77699E-001	1.76802E-001	5.94001E-004	...........
	23	6	1.77409E-001	1.76507E-001	5.89626E-004	...........
	24	6.25	1.77117E-001	1.76196E-001	5.89918E-004	...........
	25	6.5	1.76822E-001	1.75912E-001	5.87376E-004	...........
	26	6.75	1.76526E-001	1.75645E-001	5.88418E-004	...........
	27	7	1.76233E-001	1.75377E-001	5.89543E-004	...........
	28	7.25	1.75946E-001	1.75096E-001	5.90751E-004	...........
	29	7.5	1.75667E-001	1.74816E-001	5.97584E-004	...........
	30	7.75	1.75392E-001	1.74552E-001	5.96376E-004	...........
	31	8	1.75117E-001	1.74270E-001	5.95209E-004	...........
	32	8.25	1.74842E-001	1.73970E-001	5.94001E-004	...........
	33	8.5	1.74565E-001	1.73700E-001	5.93376E-004	...........
	34	8.75	1.74285E-001	1.73431E-001	5.98167E-004	...........
	35	9	1.74004E-001	1.73140E-001	5.97084E-004	...........
	36	9.25	1.73724E-001	1.72865E-001	5.95043E-004	...........
	37	9.5	1.73445E-001	1.72601E-001	5.92876E-004	...........
	38	9.75	1.73168E-001	1.72337E-001	5.95834E-004	...........
	39	10	1.72894E-001	1.72079E-001	5.97334E-004	...........
	40	10.25	1.72625E-001	1.71818E-001	5.92293E-004	...........
	41	10.5	1.72360E-001	1.71542E-001	5.94251E-004	...........
	42	10.75	1.72096E-001	1.71278E-001	5.95001E-004	...........
	43	11	1.71831E-001	1.70937E-001	5.95876E-004	...........
	44	11.25	1.71565E-001	1.71061E-001	5.90876E-004	...........
	45	11.5	1.71378E-001	1.73823E-001	5.96209E-004	...........
	46	11.75	1.71497E-001	1.74600E-001	5.92334E-004	...........
	47	12	1.71830E-001	1.60542E-001	5.94043E-004	...........
	48	12.25	1.71442E-001	1.65377E-001	5.98543E-004	...........
	49	12.5	1.69682E-001	1.66631E-001	5.97168E-004	...........
	50	12.75	1.67494E-001	1.67214E-001	5.89918E-004	...........
	51	13	1.66256E-001	1.67584E-001	5.92084E-004	...........
	52	13.25	1.66165E-001	1.66341E-001	5.96834E-004	...........
	53	13.5	1.66523E-001	1.65854E-001	5.99293E-004	...........
	54	13.75	1.66676E-001	1.64759E-001	6.01876E-004	...........
	55	14	1.66386E-001	1.63531E-001	6.00084E-004	...........
	56	14.25	1.65725E-001	1.63571E-001	5.97043E-004	...........
	57	14.5	1.64923E-001	1.63915E-001	5.95418E-004	...........
	58	14.75	1.64250E-001	1.63463E-001	5.92959E-004	...........
	59	15	1.63847E-001	1.63511E-001	5.96668E-004	...........
	60	15.25	1.63673E-001	1.64376E-001	5.94709E-004	...........
	61	15.5	1.63685E-001	1.65100E-001	6.00209E-004	...........
	62	15.75	1.63931E-001	1.66423E-001	5.96751E-004	...........
	63	16	1.64470E-001	1.67684E-001	5.94709E-004	...........
	64	16.25	1.65272E-001	1.67392E-001	5.92418E-004	...........
	65	16.5	1.66139E-001	1.66436E-001	5.97376E-004	...........
	66	16.75	1.66745E-001	1.65991E-001	5.91668E-004	...........
	67	17	1.66888E-001	1.65869E-001	5.91834E-004	...........
	68	17.25	1.66638E-001	1.64771E-001	5.87959E-004	...........
	69	17.5	1.66178E-001	1.64417E-001	5.96293E-004	...........
	70	17.75	1.65631E-001	1.64209E-001	5.95251E-004	...........
	71	18	1.65081E-001	1.63885E-001	5.89043E-004	...........
	72	18.25	1.64606E-001	1.63605E-001	5.94084E-004	...........
	73	18.5	1.64226E-001	1.63352E-001	5.89876E-004	...........
	74	18.75	1.63912E-001	1.63111E-001	5.90668E-004	...........
	75	19	1.63636E-001	1.62899E-001	5.90834E-004	...........
	76	19.25	1.63380E-001	1.62573E-001	5.87459E-004	...........
	77	19.5	1.63130E-001	1.62343E-001	5.80959E-004	...........
	78	19.75	1.62877E-001	1.62053E-001	5.88834E-004	...........
	79	20	1.62617E-001	1.61817E-001	5.82293E-004	...........
	80	20.25	1.62354E-001	1.61583E-001	5.83334E-004	...........
	81	20.5	1.62094E-001	1.61326E-001	5.90293E-004	...........
	82	20.75	1.61841E-001	1.61079E-001	5.84293E-004	...........
	83	21	1.61594E-001	1.60865E-001	5.80043E-004	...........
	84	21.25	1.61350E-001	1.60615E-001	5.78960E-004	...........
	85	21.5	1.61109E-001	1.60353E-001	5.82876E-004	...........
	86	21.75	1.60869E-001	1.60127E-001	5.85251E-004	...........
	87	22	1.60627E-001	1.59871E-001	5.78626E-004	...........
	88	22.25	1.60383E-001	1.59630E-001	5.77543E-004	...........
	89	22.5	1.60138E-001	1.59384E-001	5.83918E-004	...........
	90	22.75	1.59894E-001	1.59154E-001	5.85168E-004	...........
	91	23	1.59650E-001	1.58917E-001	5.81293E-004	...........
	92	23.25	1.59409E-001	1.58680E-001	5.83918E-004	...........
	93	23.5	1.59171E-001	1.58453E-001	5.82709E-004	...........
	94	23.75	1.58936E-001	1.58229E-001	5.79668E-004	...........
	95	24	1.58703E-001	1.57989E-001	5.78584E-004	...........
	96	24.25	1.58471E-001	1.57752E-001	5.79959E-004	...........
	97	24.5	1.58240E-001	1.57508E-001	5.82501E-004	...........
	98	24.75	1.58005E-001	1.57268E-001	5.80043E-004	...........
	99	25	1.57767E-001	1.57010E-001	5.83584E-004	...........
	100	25.25	1.57526E-001	1.56779E-001	5.78460E-004	...........
	101	25.5	1.57283E-001	1.56561E-001	5.85501E-004	...........
	102	25.75	1.57042E-001	1.56334E-001	5.81959E-004	...........
	103	26	1.56806E-001	1.56100E-001	5.81001E-004	...........
	104	26.25	1.56576E-001	1.55874E-001	5.75001E-004	...........
	105	26.5	1.56347E-001	1.55637E-001	5.76835E-004	...........
	106	26.75	1.56118E-001	1.55405E-001	5.78876E-004	...........
	107	27	1.55888E-001	1.55170E-001	5.79668E-004	...........
	108	27.25	1.55656E-001	1.54949E-001	5.82293E-004	...........
	109	27.5	1.55424E-001	1.54726E-001	5.86668E-004	...........
	110	27.75	1.55195E-001	1.54503E-001	5.79293E-004	...........
	111	28	1.54968E-001	1.54278E-001	5.76585E-004	...........
	112	28.25	1.54743E-001	1.54050E-001	5.75251E-004	...........
	113	28.5	1.54519E-001	1.53821E-001	5.81709E-004	...........
	114	28.75	1.54294E-001	1.53602E-001	5.70168E-004	...........
	115	29	1.54069E-001	1.53398E-001	5.74710E-004	...........
	116	29.25	1.53846E-001	1.53184E-001	5.77710E-004	...........
	117	29.5	1.53626E-001	1.52949E-001	5.81793E-004	...........
	118	29.75	1.53409E-001	1.52735E-001	5.75460E-004	...........
	119	30	1.53192E-001	1.52531E-001	5.74001E-004	...........
	120	30.25	1.52974E-001	1.52316E-001	5.82626E-004	...........
	121	30.5	1.52758E-001	1.52113E-001	5.79251E-004	...........
	122	30.75	1.52546E-001	1.51907E-001	5.79251E-004	...........
	123	31	1.52336E-001	1.51707E-001	5.76501E-004	...........
	124	31.25	1.52131E-001	1.51550E-001	5.79001E-004	...........
	125	31.5	1.51930E-001	1.51311E-001	5.79209E-004	...........
	126	31.75	1.51733E-001	1.51085E-001	5.76793E-004	...........
	127	32	1.51533E-001	1.50874E-001	5.73668E-004	...........
	128	32.25	1.51324E-001	1.50662E-001	5.84376E-004	...........
	129	32.5	1.51110E-001	1.50458E-001	5.80293E-004	...........
	130	32.75	1.50895E-001	1.50250E-001	5.75001E-004	...........
	131	33	1.50683E-001	1.50033E-001	5.79626E-004	...........
	132	33.25	1.50472E-001	1.49822E-001	5.77668E-004	...........
	133	33.5	1.50262E-001	1.49620E-001	5.80626E-004	...........
	134	33.75	1.50052E-001	1.49420E-001	5.82209E-004	...........
	135	34	1.49844E-001	1.49211E-001	5.78418E-004	...........
	136	34.25	1.49638E-001	1.49011E-001	5.69335E-004	...........
	137	34.5	1.49433E-001	1.48805E-001	5.70126E-004	...........
	138	34.75	1.49229E-001	1.48590E-001	5.75960E-004	...........
	139	35	1.49024E-001	1.48379E-001	5.78168E-004	...........
	140	35.25	1.48816E-001	1.48178E-001	5.72793E-004	...........
	141	35.5	1.48608E-001	1.47958E-001	5.72918E-004	...........
	142	35.75	1.48398E-001	1.47748E-001	5.72126E-004	...........
	143	36	1.48189E-001	1.47568E-001	5.80709E-004	...........
	144	36.25	1.47980E-001	1.47362E-001	5.77543E-004	...........
	145	36.5	1.47776E-001	1.47147E-001	5.71751E-004	...........
	146	36.75	1.47574E-001	1.46941E-001	5.73376E-004	...........
	147	37	1.47371E-001	1.46746E-001	5.74626E-004	...........
	148	37.25	1.47167E-001	1.46543E-001	5.70293E-004	...........
	149	37.5	1.46962E-001	1.46313E-001	5.73835E-004	...........
	150	37.75	1.46756E-001	1.46067E-001	5.75751E-004	...........
	151	38	1.46544E-001	1.45889E-001	5.79709E-004	...........
	152	38.25	1.46327E-001	1.45696E-001	5.74460E-004	...........
	153	38.5	1.46114E-001	1.45510E-001	5.72293E-004	...........
	154	38.75	1.45909E-001	1.45334E-001	5.76168E-004	...........
	155	39	1.45715E-001	1.45142E-001	5.70085E-004	...........
	156	39.25	1.45527E-001	1.44935E-001	5.76835E-004	...........
	157	39.5	1.45339E-001	1.44736E-001	5.71501E-004	...........
	158	39.75	1.45148E-001	1.44539E-001	5.72376E-004	...........
	159	40	1.44952E-001	1.44342E-001	5.75126E-004	...........
	160	40.25	1.44754E-001	1.44144E-001	5.71126E-004	...........
	161	40.5	1.44556E-001	1.43967E-001	5.75793E-004	...........
	162	40.75	1.44360E-001	1.43774E-001	5.70918E-004	...........
	163	41	1.44167E-001	1.43575E-001	5.79501E-004	...........
	164	41.25	1.43976E-001	1.43393E-001	5.75335E-004	...........
	165	41.5	1.43786E-001	1.43228E-001	5.83126E-004	...........
	166	41.75	1.43599E-001	1.43048E-001	5.69501E-004	...........
	167	42	1.43416E-001	1.42843E-001	5.68085E-004	...........
	168	42.25	1.43234E-001	1.42670E-001	5.71335E-004	...........
	169	42.5	1.43052E-001	1.42486E-001	5.77668E-004	...........
	170	42.75	1.42867E-001	1.42288E-001	5.76376E-004	...........
	171	43	1.42682E-001	1.42107E-001	5.68251E-004	...........
	172	43.25	1.42495E-001	1.41926E-001	5.70001E-004	...........
	173	43.5	1.42309E-001	1.41737E-001	5.68876E-004	...........
	174	43.75	1.42123E-001	1.41546E-001	5.73251E-004	...........
	175	44	1.41937E-001	1.41367E-001	5.77626E-004	...........
	176	44.25	1.41744E-001	1.40846E-001	5.73251E-004	...........
	177	44.5	1.41527E-001	1.40729E-001	5.72751E-004	...........
	178	44.75	1.41276E-001	1.40643E-001	5.75835E-004	...........
	179	45	1.41023E-001	1.40460E-001	5.72251E-004	...........
	180	45.25	1.40805E-001	1.40302E-001	5.69585E-004	...........
	181	45.5	1.40625E-001	1.40120E-001	5.73918E-004	...........
	182	45.75	1.40463E-001	1.39953E-001	5.70001E-004	...........
	183	46	1.40302E-001	1.39788E-001	5.73835E-004	...........
	184	46.25	1.40138E-001	1.39661E-001	5.77710E-004	...........
	185	46.5	1.39974E-001	1.39481E-001	5.76793E-004	...........
	186	46.75	1.39813E-001	1.39307E-001	5.77001E-004	...........
	187	47	1.39654E-001	1.39134E-001	5.70626E-004	...........
	188	47.25	1.39489E-001	1.38952E-001	5.82126E-004	...........
	189	47.5	1.39319E-001	1.38777E-001	5.74710E-004	...........
	190	47.75	1.39146E-001	1.38639E-001	5.75668E-004	...........
	191	48	1.38973E-001	1.38483E-001	5.78418E-004	...........
	192	48.25	1.38807E-001	1.38303E-001	5.78751E-004	...........
	193	48.5	1.38645E-001	1.38139E-001	5.71210E-004	...........
	194	48.75	1.38483E-001	1.37970E-001	5.65085E-004	...........
	195	49	1.38318E-001	1.37782E-001	5.69126E-004	...........
	196	49.25	1.38149E-001	1.37615E-001	5.68585E-004	...........
	197	49.5	1.37977E-001	1.37450E-001	5.65085E-004	...........
	198	49.75	1.37803E-001	1.37270E-001	5.76710E-004	...........
	199	50	1.37630E-001	1.37086E-001	5.74168E-004	...........
	200	50.25	1.37456E-001	1.36911E-001	5.70793E-004	...........
	201	50.5	1.37280E-001	1.36738E-001	5.73293E-004	...........
	202	50.75	1.37104E-001	1.36571E-001	5.72626E-004	...........
	203	51	1.36928E-001	1.36396E-001	5.78918E-004	...........
	204	51.25	1.36754E-001	1.36232E-001	5.78210E-004	...........
	205	51.5	1.36583E-001	1.36064E-001	5.63585E-004	...........
	206	51.75	1.36413E-001	1.35893E-001	5.76835E-004	...........
	207	52	1.36244E-001	1.35724E-001	5.82043E-004	...........
	208	52.25	1.36075E-001	1.35557E-001	5.75293E-004	...........
	209	52.5	1.35907E-001	1.35383E-001	5.79043E-004	...........
	210	52.75	1.35737E-001	1.35215E-001	5.75835E-004	...........
	211	53	1.35568E-001	1.35054E-001	5.75626E-004	...........
	212	53.25	1.35399E-001	1.34886E-001	5.78210E-004	...........
	213	53.5	1.35231E-001	1.34709E-001	5.72418E-004	...........
	214	53.75	1.35063E-001	1.34542E-001	5.77793E-004	...........
	215	54	1.34895E-001	1.34381E-001	5.78960E-004	...........
	216	54.25	1.34726E-001	1.34212E-001	5.73918E-004	...........
	217	54.5	1.34559E-001	1.34063E-001	5.70126E-004	...........
	218	54.75	1.34394E-001	1.33898E-001	5.73918E-004	...........
	219	55	1.34232E-001	1.33745E-001	5.76210E-004	...........
	220	55.25	1.34072E-001	1.33575E-001	5.76876E-004	...........
	221	55.5	1.33912E-001	1.33411E-001	5.71460E-004	...........
	222	55.75	1.33751E-001	1.33256E-001	5.73168E-004	...........
	223	56	1.33589E-001	1.33092E-001	5.69376E-004	...........
	224	56.25	1.33428E-001	1.32930E-001	5.71835E-004	...........
	225	56.5	1.33266E-001	1.32782E-001	5.74585E-004	...........
	226	56.75	1.33106E-001	1.32622E-001	5.81834E-004	...........
	227	57	1.32947E-001	1.32451E-001	5.71418E-004	...........
	228	57.25	1.32789E-001	1.32292E-001	5.77543E-004	...........
	229	57.5	1.32629E-001	1.32143E-001	5.75460E-004	...........
	230	57.75	1.32469E-001	1.31986E-001	5.75418E-004	...........
	231	58	1.32310E-001	1.31837E-001	5.73001E-004	...........
	232	58.25	1.32154E-001	1.31690E-001	5.76876E-004	...........
	233	58.5	1.32001E-001	1.31538E-001	5.71960E-004	...........
	234	58.75	1.31849E-001	1.31367E-001	5.76960E-004	...........
	235	59	1.31698E-001	1.31295E-001	5.74168E-004	...........
	236	59.25	1.31551E-001	1.31136E-001	5.81793E-004	...........
	237	59.5	1.31412E-001	1.30970E-001	5.74460E-004	...........
	238	59.75	1.31275E-001	1.30804E-001	5.76710E-004	...........
	239	60	1.31132E-001	1.30656E-001	5.70168E-004	...........
	240	60.25	1.30981E-001	1.30494E-001	5.76210E-004	...........
	241	60.5	1.30824E-001	1.30334E-001	5.81501E-004	...........
	242	60.75	1.30666E-001	1.30187E-001	5.82751E-004	...........
	243	61	1.30508E-001	1.30037E-001	5.85459E-004	...........
	244	61.25	1.30352E-001	1.29888E-001	5.80418E-004	...........
	245	61.5	1.30200E-001	1.29737E-001	5.76460E-004	...........
	246	61.75	1.30049E-001	1.29586E-001	5.81709E-004	...........
	247	62	1.29899E-001	1.29455E-001	5.79918E-004	...........
	248	62.25	1.29752E-001	1.29377E-001	5.82626E-004	...........
	249	62.5	1.29613E-001	1.29228E-001	5.83668E-004	...........
	250	62.75	1.29485E-001	1.29100E-001	5.79126E-004	...........
	251	63	1.29361E-001	1.28941E-001	5.83793E-004	...........
	252	63.25	1.29233E-001	1.28780E-001	5.71751E-004	...........
	253	63.5	1.29097E-001	1.28662E-001	5.78001E-004	...........
	254	63.75	1.28945E-001	1.28080E-001	5.77293E-004	...........
	255	64	1.28758E-001	1.27976E-001	5.76001E-004	...........
	256	64.25	1.28527E-001	1.28040E-001	5.75085E-004	...........
	257	64.5	1.28296E-001	1.27999E-001	5.81335E-004	...........
	258	64.75	1.28122E-001	1.27769E-001	5.85293E-004	...........
	259	65	1.28005E-001	1.27562E-001	5.74210E-004	...........
	260	65.25	1.27897E-001	1.27420E-001	5.80668E-004	...........
	261	65.5	1.27763E-001	1.27274E-001	5.79418E-004	...........
	262	65.75	1.27606E-001	1.27128E-001	5.75835E-004	...........
	263	66	1.27445E-001	1.26991E-001	5.82334E-004	...........
	264	66.25	1.27290E-001	1.26857E-001	5.76210E-004	...........
	265	66.5	1.27144E-001	1.26725E-001	5.86793E-004	...........
	266	66.75	1.27004E-001	1.26578E-001	5.83043E-004	...........
	267	67	1.26867E-001	1.26443E-001	5.82751E-004	...........
	268	67.25	1.26730E-001	1.26308E-001	5.79209E-004	...........
	269	67.5	1.26592E-001	1.26155E-001	5.80209E-004	...........
	270	67.75	1.26453E-001	1.26005E-001	5.77585E-004	...........
	271	68	1.26311E-001	1.25868E-001	5.84376E-004	...........
	272	68.25	1.26167E-001	1.25740E-001	5.79043E-004	...........
	273	68.5	1.26024E-001	1.25584E-001	5.80459E-004	...........
	274	68.75	1.25882E-001	1.25447E-001	5.83043E-004	...........
	275	69	1.25741E-001	1.25311E-001	5.82126E-004	...........
	276	69.25	1.25600E-001	1.25170E-001	5.83418E-004	...........
	277	69.5	1.25459E-001	1.25010E-001	5.80459E-004	...........
	278	69.75	1.25318E-001	1.24867E-001	5.85584E-004	...........
	279	70	1.25173E-001	1.24725E-001	5.78001E-004	...........
	280	70.25	1.25027E-001	1.24569E-001	5.82626E-004	...........
	281	70.5	1.24879E-001	1.24412E-001	5.81293E-004	...........
	282	70.75	1.24730E-001	1.24273E-001	5.78334E-004	...........
	283	71	1.24581E-001	1.24137E-001	5.79251E-004	...........
	284	71.25	1.24433E-001	1.24008E-001	5.86584E-004	...........
	285	71.5	1.24289E-001	1.23862E-001	5.84043E-004	...........
	286	71.75	1.24150E-001	1.23728E-001	5.77876E-004	...........
	287	72	1.24012E-001	1.23579E-001	5.77626E-004	...........
	288	72.25	1.23874E-001	1.23425E-001	5.82126E-004	...........
	289	72.5	1.23732E-001	1.23290E-001	5.83084E-004	...........
	290	72.75	1.23589E-001	1.23156E-001	5.85918E-004	...........
	291	73	1.23445E-001	1.23037E-001	5.74751E-004	...........
	292	73.25	1.23306E-001	1.22905E-001	5.83334E-004	...........
	293	73.5	1.23172E-001	1.22739E-001	5.79418E-004	...........
	294	73.75	1.23037E-001	1.22536E-001	5.75168E-004	...........
	295	74	1.22890E-001	1.22235E-001	5.79709E-004	...........
	296	74.25	1.22715E-001	1.21997E-001	5.82334E-004	...........
	297	74.5	1.22508E-001	1.21800E-001	5.80834E-004	...........
	298	74.75	1.22278E-001	1.21631E-001	5.86793E-004	...........
	299	75	1.22051E-001	1.21489E-001	5.85543E-004	...........
	300	75.25	1.21844E-001	1.21347E-001	5.90209E-004	...........
	301	75.5	1.21663E-001	1.21203E-001	5.86459E-004	...........
	302	75.75	1.21503E-001	1.21059E-001	5.81043E-004	...........
	303	76	1.21356E-001	1.20938E-001	5.81376E-004	...........
	304	76.25	1.21215E-001	1.20792E-001	5.80543E-004	...........
	305	76.5	1.21077E-001	1.20645E-001	5.87626E-004	...........
	306	76.75	1.20939E-001	1.20506E-001	5.87293E-004	...........
	307	77	1.20800E-001	1.20376E-001	5.80376E-004	...........
	308	77.25	1.20660E-001	1.20238E-001	5.76710E-004	...........
	309	77.5	1.20522E-001	1.20094E-001	5.80084E-004	...........
	310	77.75	1.20384E-001	1.19953E-001	5.81126E-004	...........
	311	78	1.20245E-001	1.19820E-001	5.80834E-004	...........
	312	78.25	1.20106E-001	1.19675E-001	5.80959E-004	...........
	313	78.5	1.19967E-001	1.19534E-001	5.88626E-004	...........
	314	78.75	1.19826E-001	1.19327E-001	5.83376E-004	...........
	315	79	1.19677E-001	1.19104E-001	5.78043E-004	...........
	316	79.25	1.19512E-001	1.18878E-001	5.86001E-004	...........
	317	79.5	1.19323E-001	1.18583E-001	5.88626E-004	...........
	318	79.75	1.19104E-001	1.18154E-001	5.82084E-004	...........
	319	80	1.18843E-001	1.17612E-001	5.80959E-004	...........
	320	80.25	1.18478E-001	1.15030E-001	5.81209E-004	...........
	321	80.5	1.17789E-001	1.10242E-001	5.80793E-004	...........
	322	80.75	1.16493E-001	1.12372E-001	5.88834E-004	...........
	323	81	1.14795E-001	1.14912E-001	5.85793E-004	...........
	324	81.25	1.13549E-001	1.16168E-001	5.79668E-004	...........
	325	81.5	1.13425E-001	1.16578E-001	5.78251E-004	...........
	326	81.75	1.14234E-001	1.16862E-001	5.86876E-004	...........
	327	82	1.15307E-001	1.16765E-001	5.84376E-004	...........
	328	82.25	1.16144E-001	1.16719E-001	5.89543E-004	...........
	329	82.5	1.16599E-001	1.16606E-001	5.79918E-004	...........
	330	82.75	1.16749E-001	1.16466E-001	5.86459E-004	...........
	331	83	1.16723E-001	1.16324E-001	5.82959E-004	...........
	332	83.25	1.16618E-001	1.16178E-001	5.88168E-004	...........
	333	83.5	1.16482E-001	1.16016E-001	5.95293E-004	...........
	334	83.75	1.16335E-001	1.15845E-001	5.91918E-004	...........
	335	84	1.16182E-001	1.15700E-001	5.89501E-004	...........
	336	84.25	1.16026E-001	1.15554E-001	5.88293E-004	...........
	337	84.5	1.15868E-001	1.15358E-001	5.84959E-004	...........
	338	84.75	1.15710E-001	1.15202E-001	5.86084E-004	...........
	339	85	1.15548E-001	1.15070E-001	5.86209E-004	...........
	340	85.25	1.15386E-001	1.14908E-001	5.78710E-004	...........
	341	85.5	1.15228E-001	1.14758E-001	5.88584E-004	...........
	342	85.75	1.15073E-001	1.14595E-001	5.87709E-004	...........
	343	86	1.14919E-001	1.14405E-001	5.91334E-004	...........
	344	86.25	1.14758E-001	1.14070E-001	5.83043E-004	...........
	345	86.5	1.14574E-001	1.13784E-001	5.81834E-004	...........
	346	86.75	1.14357E-001	1.13720E-001	5.85334E-004	...........
	347	87	1.14125E-001	1.13621E-001	5.80334E-004	...........
	348	87.25	1.13914E-001	1.13483E-001	5.86543E-004	...........
	349	87.5	1.13747E-001	1.13369E-001	5.84876E-004	...........
	350	87.75	1.13610E-001	1.13134E-001	5.89126E-004	...........
	351	88	1.13476E-001	1.12920E-001	5.86501E-004	...........
	352	88.25	1.13324E-001	1.12794E-001	5.80418E-004	...........
	353	88.5	1.13153E-001	1.12670E-001	5.86959E-004	...........
	354	88.75	1.12981E-001	1.12530E-001	5.85876E-004	...........
	355	89	1.12821E-001	1.12372E-001	5.84876E-004	...........
	356	89.25	1.12672E-001	1.12150E-001	5.80584E-004	...........
	357	89.5	1.12519E-001	1.11921E-001	5.83084E-004	...........
	358	89.75	1.12350E-001	1.11796E-001	5.87334E-004	...........
	359	90	1.12167E-001	1.11695E-001	5.86626E-004	...........
	360	90.25	1.11990E-001	1.11569E-001	5.85751E-004	...........
	361	90.5	1.11834E-001	1.11438E-001	5.79209E-004	...........
	362	90.75	1.11698E-001	1.11316E-001	5.90376E-004	...........
	363	91	1.11572E-001	1.11197E-001	5.92501E-004	...........
	364	91.25	1.11449E-001	1.11079E-001	5.91168E-004	...........
	365	91.5	1.11328E-001	1.10973E-001	5.86543E-004	...........
	366	91.75	1.11209E-001	1.10836E-001	5.90543E-004	...........
	367	92	1.11090E-001	1.10718E-001	5.91584E-004	...........
	368	92.25	1.10971E-001	1.10597E-001	5.92334E-004	...........
	369	92.5	1.10850E-001	1.10472E-001	5.90918E-004	...........
	370	92.75	1.10728E-001	1.10346E-001	5.87376E-004	...........
	371	93	1.10604E-001	1.10211E-001	5.85126E-004	...........
	372	93.25	1.10479E-001	1.10081E-001	5.87251E-004	...........
	373	93.5	1.10352E-001	1.09943E-001	5.87251E-004	...........
	374	93.75	1.10221E-001	1.09819E-001	5.85459E-004	...........
	375	94	1.10090E-001	1.09703E-001	5.79168E-004	...........
	376	94.25	1.09960E-001	1.09563E-001	5.82418E-004	...........
	377	94.5	1.09831E-001	1.09417E-001	5.83043E-004	...........
	378	94.75	1.09703E-001	1.09324E-001	5.81001E-004	...........
	379	95	1.09573E-001	1.09175E-001	5.82834E-004	...........
	380	95.25	1.09445E-001	1.09040E-001	5.85876E-004	...........
	381	95.5	1.09316E-001	1.08887E-001	5.84001E-004	...........
	382	95.75	1.09185E-001	1.08874E-001	5.81709E-004	...........
	383	96	1.09066E-001	1.09073E-001	5.88876E-004	...........
	384	96.25	1.08994E-001	1.09338E-001	5.86376E-004	...........
	385	96.5	1.09021E-001	1.10239E-001	5.85876E-004	...........
	386	96.75	1.09178E-001	1.09234E-001	5.89959E-004	...........
	387	97	1.09389E-001	1.09284E-001	5.84209E-004	...........
	388	97.25	1.09501E-001	1.09038E-001	5.87126E-004	...........
	389	97.5	1.09448E-001	1.08801E-001	5.85626E-004	...........
	390	97.75	1.09279E-001	1.08557E-001	5.85709E-004	...........
	391	98	1.09059E-001	1.08335E-001	5.93876E-004	...........
	392	98.25	1.08823E-001	1.08102E-001	5.95751E-004	...........
	393	98.5	1.08588E-001	1.07936E-001	5.91418E-004	...........
	394	98.75	1.08361E-001	1.07775E-001	5.88918E-004	...........
	395	99	1.08152E-001	1.07615E-001	5.88751E-004	...........
	396	99.25	1.07963E-001	1.07476E-001	5.85043E-004	...........
	397	99.5	1.07792E-001	1.07324E-001	5.90501E-004	...........
	398	99.75	1.07634E-001	1.07177E-001	5.92043E-004	...........
	399	100	1.07483E-001	1.07031E-001	5.93918E-004	...........
	400	100.25	1.07336E-001	1.06890E-001	5.88584E-004	...........
	401	100.5	1.07189E-001	1.06747E-001	5.83251E-004	...........
	402	100.75	1.07045E-001	1.06610E-001	5.90584E-004	...........
	403	101	1.06902E-001	1.06477E-001	5.87293E-004	...........
	404	101.25	1.06761E-001	1.06333E-001	5.84418E-004	...........
	405	101.5	1.06622E-001	1.06209E-001	5.85293E-004	...........
	406	101.75	1.06485E-001	1.06071E-001	5.83668E-004	...........
	407	102	1.06350E-001	1.05929E-001	5.84876E-004	...........
	408	102.25	1.06215E-001	1.05802E-001	5.87334E-004	...........
	409	102.5	1.06080E-001	1.05671E-001	5.87168E-004	...........
	410	102.75	1.05946E-001	1.05547E-001	5.86418E-004	...........
	411	103	1.05813E-001	1.05420E-001	5.92126E-004	...........
	412	103.25	1.05684E-001	1.05279E-001	5.87668E-004	...........
	413	103.5	1.05554E-001	1.05142E-001	5.85584E-004	...........
	414	103.75	1.05423E-001	1.05017E-001	5.90418E-004	...........
	415	104	1.05291E-001	1.04880E-001	5.82251E-004	...........
	416	104.25	1.05157E-001	1.04752E-001	5.83834E-004	...........
	417	104.5	1.05025E-001	1.04632E-001	5.87293E-004	...........
	418	104.75	1.04894E-001	1.04474E-001	5.89334E-004	...........
	419	105	1.04762E-001	1.04309E-001	5.91584E-004	...........
	420	105.25	1.04624E-001	1.04173E-001	5.90876E-004	...........
	421	105.5	1.04481E-001	1.04056E-001	5.84751E-004	...........
	422	105.75	1.04336E-001	1.03919E-001	5.83459E-004	...........
	423	106	1.04196E-001	1.03786E-001	5.86293E-004	...........
	424	106.25	1.04061E-001	1.03662E-001	5.89084E-004	...........
	425	106.5	1.03929E-001	1.03529E-001	5.86709E-004	...........
	426	106.75	1.03799E-001	1.03392E-001	5.86626E-004	...........
	427	107	1.03668E-001	1.03266E-001	5.87168E-004	...........
	428	107.25	1.03538E-001	1.03150E-001	5.82376E-004	...........
	429	107.5	1.03408E-001	1.03021E-001	5.85209E-004	...........
	430	107.75	1.03280E-001	1.02883E-001	5.85459E-004	...........
	431	108	1.03154E-001	1.02764E-001	5.90709E-004	...........
	432	108.25	1.03027E-001	1.02644E-001	5.82834E-004	...........
	433	108.5	1.02900E-001	1.02512E-001	5.83584E-004	...........
	434	108.75	1.02775E-001	1.02387E-001	5.90876E-004	...........
	435	109	1.02649E-001	1.02272E-001	5.85001E-004	...........
	436	109.25	1.02525E-001	1.02151E-001	5.87334E-004	...........
	437	109.5	1.02402E-001	1.02036E-001	5.88084E-004	...........
	438	109.75	1.02281E-001	1.01909E-001	5.83043E-004	...........
	439	110	1.02161E-001	1.01795E-001	5.82084E-004	...........
	440	110.25	1.02042E-001	1.01674E-001	5.88001E-004	...........
	441	110.5	1.01922E-001	1.01546E-001	5.88668E-004	...........
	442	110.75	1.01802E-001	1.01435E-001	5.90751E-004	...........
	443	111	1.01681E-001	1.01311E-001	5.96876E-004	...........
	444	111.25	1.01561E-001	1.01197E-001	5.94209E-004	...........
	445	111.5	1.01441E-001	1.01069E-001	5.90543E-004	...........
	446	111.75	1.01322E-001	1.00955E-001	5.87584E-004	...........
	447	112	1.01202E-001	1.00830E-001	5.82376E-004	...........
	448	112.25	1.01082E-001	1.00704E-001	5.87918E-004	...........
	449	112.5	1.00960E-001	1.00579E-001	5.82876E-004	...........
	450	112.75	1.00838E-001	1.00466E-001	5.89084E-004	...........
	451	113	1.00715E-001	1.00340E-001	5.85084E-004	...........
	452	113.25	1.00588E-001	9.99396E-002	5.80459E-004	...........
	453	113.5	1.00416E-001	9.86386E-002	5.82876E-004	...........
	454	113.75	1.00053E-001	9.52455E-002	5.85501E-004	...........
	455	114	9.92364E-002	9.33851E-002	5.86418E-004	...........
	456	114.25	9.77930E-002	9.12753E-002	5.79085E-004	...........
	457	114.5	9.58260E-002	8.81100E-002	5.80626E-004	...........
	458	114.75	9.34976E-002	8.29597E-002	5.80168E-004	...........
	459	115	9.06755E-002	7.56453E-002	5.79168E-004	...........
	460	115.25	8.70423E-002	7.35071E-002	5.79251E-004	...........
	461	115.5	8.27839E-002	7.64110E-002	5.81418E-004	...........
	462	115.75	7.89937E-002	7.86844E-002	5.75918E-004	...........
	463	116	7.68899E-002	7.93022E-002	5.78334E-004	...........
	464	116.25	7.66823E-002	7.98561E-002	5.83126E-004	...........
	465	116.5	7.76070E-002	8.16247E-002	5.81376E-004	...........
	466	116.75	7.88867E-002	8.38048E-002	5.85584E-004	...........
	467	117	8.02843E-002	8.60438E-002	5.84251E-004	...........
	468	117.25	8.18967E-002	8.84873E-002	5.88084E-004	...........
	469	117.5	8.38221E-002	9.19103E-002	5.76501E-004	...........
	470	117.75	8.61785E-002	9.92439E-002	5.76626E-004	...........
	471	118	8.92925E-002	1.05768E-001	5.76668E-004	...........
	472	118.25	9.33661E-002	1.02980E-001	5.85626E-004	...........
	473	118.5	9.75473E-002	9.36756E-002	5.85668E-004	...........
	474	118.75	9.98354E-002	8.61311E-002	5.79959E-004	...........
	475	119	9.87355E-002	8.51664E-002	5.84334E-004	...........
	476	119.25	9.48899E-002	8.58066E-002	5.89209E-004	...........
	477	119.5	9.05057E-002	8.50081E-002	5.85751E-004	...........
	478	119.75	8.73031E-002	8.30953E-002	5.86168E-004	...........
	479	120	8.56950E-002	9.41456E-002	5.82709E-004	...........
	480	120.25	8.60289E-002	1.08562E-001	5.73043E-004	...........
	481	120.5	8.92324E-002	1.09556E-001	5.79043E-004	...........
	482	120.75	9.51125E-002	1.07260E-001	5.81585E-004	...........
	483	121	1.01355E-001	1.06138E-001	5.76210E-004	...........
	484	121.25	1.05494E-001	1.04734E-001	5.71335E-004	...........
	485	121.5	1.06889E-001	1.02632E-001	5.72960E-004	...........
	486	121.75	1.06365E-001	1.02116E-001	5.77585E-004	...........
	487	122	1.05003E-001	1.01419E-001	5.79376E-004	...........
	488	122.25	1.03565E-001	1.00800E-001	5.79835E-004	...........
	489	122.5	1.02400E-001	1.00263E-001	5.77876E-004	...........
	490	122.75	1.01537E-001	9.98025E-002	5.86084E-004	...........
	491	123	1.00880E-001	9.95073E-002	5.77501E-004	...........
	492	123.25	1.00351E-001	9.91741E-002	5.74668E-004	...........
	493	123.5	9.99107E-002	9.87834E-002	5.73376E-004	...........
	494	123.75	9.95272E-002	9.84338E-002	5.67710E-004	...........
	495	124	9.91701E-002	9.81380E-002	5.73918E-004	...........
	496	124.25	9.88245E-002	9.78683E-002	5.77126E-004	...........
	497	124.5	9.84934E-002	9.75950E-002	5.74085E-004	...........
	498	124.75	9.81833E-002	9.73244E-002	5.76793E-004	...........
	499	125	9.78938E-002	9.70915E-002	5.71876E-004	...........
	500	125.25	9.76208E-002	9.68623E-002	5.74335E-004	...........
	501	125.5	9.73624E-002	9.66387E-002	5.71960E-004	...........
	502	125.75	9.71172E-002	9.63953E-002	5.77168E-004	...........
	503	126	9.68793E-002	9.60781E-002	5.73960E-004	...........
	504	126.25	9.66368E-002	9.57796E-002	5.79918E-004	...........
	505	126.5	9.63793E-002	9.55787E-002	5.82709E-004	...........
	506	126.75	9.61121E-002	9.53973E-002	5.77335E-004	...........
	507	127	9.58547E-002	9.52160E-002	5.78876E-004	...........
	508	127.25	9.56229E-002	9.50406E-002	5.80918E-004	...........
	509	127.5	9.54182E-002	9.48800E-002	5.81251E-004	...........
	510	127.75	9.52330E-002	9.47245E-002	5.79709E-004	...........
	511	128	9.50599E-002	9.45475E-002	5.71668E-004	...........
	512	128.25	9.48936E-002	9.43968E-002	5.72460E-004	...........
	513	128.5	9.47307E-002	9.42642E-002	5.73376E-004	...........
	514	128.75	9.45721E-002	9.41347E-002	5.73751E-004	...........
	515	129	9.44223E-002	9.40527E-002	5.79251E-004	...........
	516	129.25	9.42848E-002	9.38977E-002	5.86626E-004	...........
	517	129.5	9.41579E-002	9.37493E-002	5.78251E-004	...........
	518	129.75	9.40325E-002	9.36000E-002	5.80834E-004	...........
	519	130	9.39001E-002	9.34492E-002	5.82751E-004	...........
	520	130.25	9.37593E-002	9.33172E-002	5.76585E-004	...........
	521	130.5	9.36140E-002	9.31695E-002	5.82793E-004	...........
	522	130.75	9.34682E-002	9.30130E-002	5.72751E-004	...........
	523	131	9.33213E-002	9.27967E-002	5.79251E-004	...........
	524	131.25	9.31674E-002	9.26356E-002	5.73335E-004	...........
	525	131.5	9.30023E-002	9.24831E-002	5.74960E-004	...........
	526	131.75	9.28308E-002	9.23322E-002	5.79835E-004	...........
	527	132	9.26620E-002	9.22037E-002	5.80501E-004	...........
	528	132.25	9.25022E-002	9.20455E-002	5.79543E-004	...........
	529	132.5	9.23511E-002	9.19029E-002	5.76335E-004	...........
	530	132.75	9.22049E-002	9.17707E-002	5.70793E-004	...........
	531	133	9.20615E-002	9.16529E-002	5.72543E-004	...........
	532	133.25	9.19216E-002	9.14948E-002	5.74710E-004	...........
	533	133.5	9.17841E-002	9.13167E-002	5.69418E-004	...........
	534	133.75	9.16426E-002	9.11328E-002	5.73918E-004	...........
	535	134	9.14901E-002	9.09676E-002	5.71085E-004	...........
	536	134.25	9.13261E-002	9.08172E-002	5.70501E-004	...........
	537	134.5	9.11578E-002	9.06840E-002	5.64001E-004	...........
	538	134.75	9.09944E-002	9.05586E-002	5.71001E-004	...........
	539	135	9.08416E-002	9.04213E-002	5.75751E-004	...........
	540	135.25	9.06995E-002	9.02903E-002	5.69168E-004	...........
	541	135.5	9.05649E-002	9.01873E-002	5.66543E-004	...........
	542	135.75	9.04347E-002	9.00229E-002	5.64668E-004	...........
	543	136	9.03062E-002	8.98957E-002	5.70418E-004	...........
	544	136.25	9.01760E-002	8.97733E-002	5.66626E-004	...........
	545	136.5	9.00440E-002	8.96588E-002	5.73376E-004	...........
	546	136.75	8.99136E-002	8.95292E-002	5.71585E-004	...........
	547	137	8.97860E-002	8.93577E-002	5.72876E-004	...........
	548	137.25	8.96570E-002	8.92296E-002	5.74293E-004	...........
	549	137.5	8.95229E-002	8.91262E-002	5.72960E-004	...........
	550	137.75	8.93870E-002	8.90082E-002	5.75626E-004	...........
	551	138	8.92562E-002	8.88793E-002	5.69251E-004	...........
	552	138.25	8.91323E-002	8.87740E-002	5.73543E-004	...........
	553	138.5	8.90128E-002	8.86554E-002	5.73168E-004	...........
	554	138.75	8.88954E-002	8.85294E-002	5.69668E-004	...........
	555	139	8.87785E-002	8.84135E-002	5.72668E-004	...........
	556	139.25	8.86608E-002	8.83007E-002	5.78501E-004	...........
	557	139.5	8.85425E-002	8.81789E-002	5.79293E-004	...........
	558	139.75	8.84244E-002	8.80556E-002	5.77501E-004	...........
	559	140	8.83064E-002	8.79561E-002	5.72001E-004	...........
	560	140.25	8.81887E-002	8.78239E-002	5.73543E-004	...........
	561	140.5	8.80714E-002	8.76887E-002	5.73335E-004	...........
	562	140.75	8.79523E-002	8.75692E-002	5.77376E-004	...........
	563	141	8.78300E-002	8.74623E-002	5.72210E-004	...........
	564	141.25	8.77065E-002	8.73310E-002	5.69293E-004	...........
	565	141.5	8.75841E-002	8.71967E-002	5.72460E-004	...........
	566	141.75	8.74618E-002	8.70841E-002	5.71835E-004	...........
	567	142	8.73385E-002	8.69664E-002	5.75168E-004	...........
	568	142.25	8.72156E-002	8.68605E-002	5.74126E-004	...........
	569	142.5	8.70958E-002	8.67466E-002	5.74126E-004	...........
	570	142.75	8.69801E-002	8.66442E-002	5.73626E-004	...........
	571	143	8.68677E-002	8.65168E-002	5.71043E-004	...........
	572	143.25	8.67562E-002	8.63966E-002	5.74043E-004	...........
	573	143.5	8.66428E-002	8.62808E-002	5.77043E-004	...........
	574	143.75	8.65268E-002	8.61778E-002	5.70460E-004	...........
	575	144	8.64102E-002	8.60598E-002	5.76835E-004	...........
	576	144.25	8.62954E-002	8.59533E-002	5.73710E-004	...........
	577	144.5	8.61829E-002	8.58585E-002	5.80293E-004	...........
	578	144.75	8.60735E-002	8.57605E-002	5.77043E-004	...........
	579	145	8.59678E-002	8.56489E-002	5.73876E-004	...........
	580	145.25	8.58644E-002	8.55250E-002	5.69251E-004	...........
	581	145.5	8.57596E-002	8.54104E-002	5.70835E-004	...........
	582	145.75	8.56500E-002	8.52842E-002	5.76168E-004	...........
	583	146	8.55348E-002	8.51503E-002	5.77335E-004	...........
	584	146.25	8.54149E-002	8.50390E-002	5.73376E-004	...........
	585	146.5	8.52921E-002	8.49238E-002	5.73501E-004	...........
	586	146.75	8.51696E-002	8.48052E-002	5.78418E-004	...........
	587	147	8.50490E-002	8.46673E-002	5.69835E-004	...........
	588	147.25	8.49286E-002	8.45360E-002	5.72126E-004	...........
	589	147.5	8.48052E-002	8.44078E-002	5.68001E-004	...........
	590	147.75	8.46782E-002	8.42899E-002	5.67168E-004	...........
	591	148	8.45503E-002	8.41864E-002	5.70460E-004	...........
	592	148.25	8.44257E-002	8.40752E-002	5.65501E-004	...........
	593	148.5	8.43069E-002	8.39631E-002	5.77626E-004	...........
	594	148.75	8.41934E-002	8.38631E-002	5.67043E-004	...........
	595	149	8.40836E-002	8.37632E-002	5.69668E-004	...........
	596	149.25	8.39767E-002	8.36615E-002	5.68876E-004	...........
	597	149.5	8.38722E-002	8.35451E-002	5.71626E-004	...........
	598	149.75	8.37685E-002	8.34408E-002	5.73710E-004	...........
	599	150	8.36634E-002	8.33334E-002	5.69793E-004	...........
	600	150.25	8.35566E-002	8.32192E-002	5.72418E-004	...........
	601	150.5	8.34485E-002	8.31124E-002	5.74126E-004	...........
	602	150.75	8.33395E-002	8.30050E-002	5.68085E-004	...........
	603	151	8.32301E-002	8.28871E-002	5.68835E-004	...........
	604	151.25	8.31203E-002	8.27761E-002	5.70168E-004	...........
	605	151.5	8.30093E-002	8.26581E-002	5.72960E-004	...........
	606	151.75	8.28970E-002	8.25562E-002	5.68876E-004	...........
	607	152	8.27843E-002	8.24408E-002	5.66501E-004	...........
	608	152.25	8.26722E-002	8.23262E-002	5.71376E-004	...........
	609	152.5	8.25607E-002	8.22247E-002	5.69835E-004	...........
	610	152.75	8.24502E-002	8.21336E-002	5.68668E-004	...........
	611	153	8.23417E-002	8.20062E-002	5.66793E-004	...........
	612	153.25	8.22348E-002	8.18767E-002	5.71043E-004	...........
	613	153.5	8.21258E-002	8.17814E-002	5.62668E-004	...........
	614	153.75	8.20131E-002	8.16661E-002	5.65293E-004	...........
	615	154	8.18993E-002	8.15650E-002	5.61460E-004	...........
	616	154.25	8.17876E-002	8.14580E-002	5.58918E-004	...........
	617	154.5	8.16774E-002	8.12860E-002	5.62751E-004	...........
	618	154.75	8.15597E-002	8.09534E-002	5.64501E-004	...........
	619	155	8.14150E-002	8.07555E-002	5.65126E-004	...........
	620	155.25	8.12316E-002	8.06406E-002	5.66876E-004	...........
	621	155.5	8.10268E-002	8.05330E-002	5.61001E-004	...........
	622	155.75	8.08343E-002	8.04172E-002	5.60543E-004	...........
	623	156	8.06735E-002	8.03112E-002	5.59376E-004	...........
	624	156.25	8.05414E-002	8.02056E-002	5.65460E-004	...........
	625	156.5	8.04261E-002	8.00950E-002	5.61793E-004	...........
	626	156.75	8.03178E-002	7.99938E-002	5.59918E-004	...........
	627	157	8.02119E-002	7.98989E-002	5.64293E-004	...........
	628	157.25	8.01074E-002	7.97920E-002	5.61335E-004	...........
	629	157.5	8.00043E-002	7.96782E-002	5.62918E-004	...........
	630	157.75	7.99012E-002	7.95776E-002	5.62793E-004	...........
	631	158	7.97966E-002	7.94688E-002	5.68501E-004	...........
	632	158.25	7.96905E-002	7.93545E-002	5.57376E-004	...........
	633	158.5	7.95830E-002	7.92394E-002	5.59668E-004	...........
	634	158.75	7.94739E-002	7.91355E-002	5.61085E-004	...........
	635	159	7.93633E-002	7.90260E-002	5.66960E-004	...........
	636	159.25	7.92527E-002	7.89154E-002	5.61876E-004	...........
	637	159.5	7.91429E-002	7.88047E-002	5.67918E-004	...........
	638	159.75	7.90337E-002	7.87115E-002	5.67001E-004	...........
	639	160	7.89255E-002	7.85960E-002	5.56627E-004	...........
	640	160.25	7.88187E-002	7.84946E-002	5.62501E-004	...........
	641	160.5	7.87131E-002	7.83957E-002	5.67210E-004	...........
	642	160.75	7.86084E-002	7.82917E-002	5.62043E-004	...........
	643	161	7.85046E-002	7.81811E-002	5.56127E-004	...........
	644	161.25	7.84010E-002	7.80785E-002	5.56335E-004	...........
	645	161.5	7.82969E-002	7.79791E-002	5.58918E-004	...........
	646	161.75	7.81925E-002	7.78735E-002	5.57085E-004	...........
	647	162	7.80886E-002	7.77753E-002	5.61960E-004	...........
	648	162.25	7.79859E-002	7.76868E-002	5.59710E-004	...........
	649	162.5	7.78855E-002	7.76012E-002	5.56752E-004	...........
	650	162.75	7.77887E-002	7.74996E-002	5.58418E-004	...........
	651	163	7.76943E-002	7.73818E-002	5.68210E-004	...........
	652	163.25	7.75988E-002	7.72790E-002	5.61293E-004	...........
	653	163.5	7.74986E-002	7.71662E-002	5.64710E-004	...........
	654	163.75	7.73935E-002	7.70580E-002	5.66501E-004	...........
	655	164	7.72855E-002	7.69484E-002	5.61751E-004	...........
	656	164.25	7.71760E-002	7.68301E-002	5.68918E-004	...........
	657	164.5	7.70654E-002	7.67153E-002	5.67293E-004	...........
	658	164.75	7.69533E-002	7.66019E-002	5.65085E-004	...........
	659	165	7.68399E-002	7.65028E-002	5.64626E-004	...........
	660	165.25	7.67272E-002	7.63961E-002	5.57460E-004	...........
	661	165.5	7.66169E-002	7.62834E-002	5.56543E-004	...........
	662	165.75	7.65088E-002	7.61824E-002	5.62710E-004	...........
	663	166	7.64019E-002	7.60773E-002	5.65085E-004	...........
	664	166.25	7.62955E-002	7.59663E-002	5.60751E-004	...........
	665	166.5	7.61895E-002	7.58666E-002	5.58460E-004	...........
	666	166.75	7.60838E-002	7.57667E-002	5.59876E-004	...........
	667	167	7.59790E-002	7.56642E-002	5.58793E-004	...........
	668	167.25	7.58758E-002	7.55657E-002	5.64126E-004	...........
	669	167.5	7.57740E-002	7.54647E-002	5.62793E-004	...........
	670	167.75	7.56731E-002	7.53651E-002	5.65876E-004	...........
	671	168	7.55726E-002	7.52539E-002	5.63918E-004	...........
	672	168.25	7.54714E-002	7.51508E-002	5.63335E-004	...........
	673	168.5	7.53687E-002	7.50535E-002	5.57626E-004	...........
	674	168.75	7.52654E-002	7.49634E-002	5.57252E-004	...........
	675	169	7.51640E-002	7.48820E-002	5.58460E-004	...........
	676	169.25	7.50667E-002	7.47821E-002	5.55002E-004	...........
	677	169.5	7.49735E-002	7.46907E-002	5.55460E-004	...........
	678	169.75	7.48817E-002	7.45805E-002	5.57960E-004	...........
	679	170	7.47882E-002	7.44860E-002	5.54835E-004	...........
	680	170.25	7.46916E-002	7.43837E-002	5.59835E-004	...........
	681	170.5	7.45927E-002	7.42878E-002	5.54043E-004	...........
	682	170.75	7.44928E-002	7.41782E-002	5.59168E-004	...........
	683	171	7.43924E-002	7.40811E-002	5.64626E-004	...........
	684	171.25	7.42913E-002	7.39772E-002	5.60043E-004	...........
	685	171.5	7.41892E-002	7.38573E-002	5.58543E-004	...........
	686	171.75	7.40853E-002	7.37511E-002	5.56251E-004	...........
	687	172	7.39783E-002	7.36211E-002	5.60585E-004	...........
	688	172.25	7.38675E-002	7.35181E-002	5.57376E-004	...........
	689	172.5	7.37538E-002	7.34092E-002	5.54543E-004	...........
	690	172.75	7.36401E-002	7.33126E-002	5.60001E-004	...........
	691	173	7.35295E-002	7.32235E-002	5.55918E-004	...........
	692	173.25	7.34242E-002	7.31274E-002	5.55210E-004	...........
	693	173.5	7.33244E-002	7.30259E-002	5.52043E-004	...........
	694	173.75	7.32275E-002	7.29230E-002	5.54252E-004	...........
	695	174	7.31309E-002	7.28341E-002	5.56335E-004	...........
	696	174.25	7.30332E-002	7.27260E-002	5.57876E-004	...........
	697	174.5	7.29349E-002	7.26277E-002	5.57126E-004	...........
	698	174.75	7.28361E-002	7.25453E-002	5.55002E-004	...........
	699	175	7.27382E-002	7.24581E-002	5.60626E-004	...........
	700	175.25	7.26432E-002	7.23560E-002	5.58793E-004	...........
	701	175.5	7.25504E-002	7.22532E-002	5.57043E-004	...........
	702	175.75	7.24573E-002	7.21632E-002	5.54793E-004	...........
	703	176	7.23621E-002	7.20616E-002	5.60585E-004	...........
	704	176.25	7.22654E-002	7.19736E-002	5.58626E-004	...........
	705	176.5	7.21690E-002	7.18828E-002	5.59543E-004	...........
	706	176.75	7.20740E-002	7.17874E-002	5.58585E-004	...........
	707	177	7.19802E-002	7.16779E-002	5.55793E-004	...........
	708	177.25	7.18860E-002	7.15946E-002	5.47085E-004	...........
	709	177.5	7.17907E-002	7.15132E-002	5.48668E-004	...........
	710	177.75	7.16963E-002	7.14184E-002	5.51252E-004	...........
	711	178	7.16044E-002	7.13151E-002	5.51377E-004	...........
	712	178.25	7.15133E-002	7.12247E-002	5.52710E-004	...........
	713	178.5	7.14205E-002	7.11149E-002	5.51043E-004	...........
	714	178.75	7.13231E-002	7.09292E-002	5.50960E-004	...........
	715	179	7.12156E-002	7.08133E-002	5.45752E-004	...........
	716	179.25	7.10945E-002	7.07149E-002	5.52668E-004	...........
	717	179.5	7.09659E-002	7.06087E-002	5.49668E-004	...........
	718	179.75	7.08409E-002	7.04972E-002	5.51252E-004	...........
	719	180	7.07243E-002	7.03898E-002	5.49252E-004	...........
	720	180.25	7.06141E-002	7.03009E-002	5.51127E-004	...........
	721	180.5	7.05074E-002	7.01718E-002	5.48293E-004	...........
	722	180.75	7.04020E-002	7.00717E-002	5.49293E-004	...........
	723	181	7.02959E-002	6.99762E-002	5.47168E-004	...........
	724	181.25	7.01893E-002	6.98613E-002	5.55710E-004	...........
	725	181.5	7.00845E-002	6.98256E-002	5.58585E-004	...........
	726	181.75	6.99893E-002	6.99058E-002	5.46877E-004	...........
	727	182	6.99177E-002	6.98388E-002	5.46960E-004	...........
	728	182.25	6.98754E-002	6.97267E-002	5.52210E-004	...........
	729	182.5	6.98466E-002	6.97417E-002	5.50627E-004	...........
	730	182.75	6.98140E-002	6.97410E-002	5.56168E-004	...........
	731	183	6.97778E-002	6.96346E-002	5.54585E-004	...........
	732	183.25	6.97405E-002	6.95242E-002	5.51252E-004	...........
	733	183.5	6.96923E-002	6.94332E-002	5.48585E-004	...........
	734	183.75	6.96231E-002	6.92909E-002	5.49335E-004	...........
	735	184	6.95320E-002	6.91642E-002	5.51668E-004	...........
	736	184.25	6.94237E-002	6.90471E-002	5.53418E-004	...........
	737	184.5	6.93048E-002	6.89540E-002	5.51543E-004	...........
	738	184.75	6.91844E-002	6.88498E-002	5.54127E-004	...........
	739	185	6.90691E-002	6.87403E-002	5.59001E-004	...........
	740	185.25	6.89602E-002	6.86431E-002	5.53293E-004	...........
	741	185.5	6.88552E-002	6.85462E-002	5.50168E-004	...........
	742	185.75	6.87528E-002	6.84481E-002	5.46752E-004	...........
	743	186	6.86514E-002	6.82997E-002	5.57585E-004	...........
	744	186.25	6.85468E-002	6.81663E-002	5.54710E-004	...........
	745	186.5	6.84339E-002	6.80585E-002	5.59085E-004	...........
	746	186.75	6.83130E-002	6.79436E-002	5.56668E-004	...........
	747	187	6.81900E-002	6.78384E-002	5.55335E-004	...........
	748	187.25	6.80710E-002	6.77476E-002	5.52793E-004	...........
	749	187.5	6.79591E-002	6.76670E-002	5.52002E-004	...........
	750	187.75	6.78553E-002	6.75528E-002	5.55418E-004	...........
	751	188	6.77576E-002	6.74664E-002	5.57335E-004	...........
	752	188.25	6.76625E-002	6.73736E-002	5.53335E-004	...........
	753	188.5	6.75677E-002	6.72733E-002	5.46585E-004	...........
	754	188.75	6.74728E-002	6.71745E-002	5.55085E-004	...........
	755	189	6.73772E-002	6.70767E-002	5.54460E-004	...........
	756	189.25	6.72803E-002	6.69743E-002	5.44752E-004	...........
	757	189.5	6.71821E-002	6.68736E-002	5.54335E-004	...........
	758	189.75	6.70829E-002	6.67826E-002	5.44668E-004	...........
	759	190	6.69838E-002	6.66924E-002	5.53377E-004	...........
	760	190.25	6.68863E-002	6.65932E-002	5.48710E-004	...........
	761	190.5	6.67908E-002	6.65051E-002	5.50752E-004	...........
	762	190.75	6.66968E-002	6.64092E-002	5.48210E-004	...........
	763	191	6.66034E-002	6.63152E-002	5.57043E-004	...........
	764	191.25	6.65099E-002	6.62110E-002	5.58460E-004	...........
	765	191.5	6.64154E-002	6.61245E-002	5.52085E-004	...........
	766	191.75	6.63200E-002	6.60294E-002	5.50793E-004	...........
	767	192	6.62245E-002	6.59287E-002	5.53627E-004	...........
	768	192.25	6.61293E-002	6.58293E-002	5.54543E-004	...........
	769	192.5	6.60333E-002	6.57295E-002	5.47377E-004	...........
	770	192.75	6.59360E-002	6.56405E-002	5.53835E-004	...........
	771	193	6.58380E-002	6.55302E-002	5.52085E-004	...........
	772	193.25	6.57398E-002	6.54311E-002	5.49335E-004	...........
	773	193.5	6.56398E-002	6.52809E-002	5.55710E-004	...........
	774	193.75	6.55335E-002	6.51229E-002	5.46502E-004	...........
	775	194	6.54150E-002	6.49755E-002	5.51002E-004	...........
	776	194.25	6.52790E-002	6.46677E-002	5.46752E-004	...........
	777	194.5	6.51198E-002	6.45407E-002	5.54043E-004	...........
	778	194.75	6.49386E-002	6.44211E-002	5.51002E-004	...........
	779	195	6.47534E-002	6.43337E-002	5.51460E-004	...........
	780	195.25	6.45881E-002	6.42541E-002	5.52168E-004	...........
	781	195.5	6.44539E-002	6.41527E-002	5.47418E-004	...........
	782	195.75	6.43452E-002	6.40520E-002	5.52960E-004	...........
	783	196	6.42495E-002	6.39723E-002	5.57376E-004	...........
	784	196.25	6.41575E-002	6.38777E-002	5.50502E-004	...........
	785	196.5	6.40664E-002	6.37945E-002	5.45877E-004	...........
	786	196.75	6.39764E-002	6.37008E-002	5.55210E-004	...........
	787	197	6.38875E-002	6.36301E-002	5.45543E-004	...........
	788	197.25	6.38002E-002	6.35397E-002	5.52918E-004	...........
	789	197.5	6.37147E-002	6.34477E-002	5.51252E-004	...........
	790	197.75	6.36297E-002	6.33617E-002	5.48877E-004	...........
	791	198	6.35437E-002	6.32711E-002	5.50460E-004	...........
	792	198.25	6.34555E-002	6.31484E-002	5.51502E-004	...........
	793	198.5	6.33635E-002	6.30590E-002	5.57168E-004	...........
	794	198.75	6.32669E-002	6.29672E-002	5.57835E-004	...........
	795	199	6.31680E-002	6.28790E-002	5.59251E-004	...........
	796	199.25	6.30704E-002	6.27783E-002	5.52918E-004	...........
	797	199.5	6.29753E-002	6.26823E-002	5.55668E-004	...........
	798	199.75	6.28811E-002	6.25929E-002	5.50835E-004	...........
	799	200	6.27869E-002	6.25055E-002	5.48918E-004	...........
	800	200.25	6.26933E-002	6.24019E-002	5.50168E-004	...........
	801	200.5	6.26003E-002	6.23162E-002	5.53835E-004	...........
	802	200.75	6.25077E-002	6.22378E-002	5.54877E-004	...........
	803	201	6.24162E-002	6.21415E-002	5.54627E-004	...........
	804	201.25	6.23267E-002	6.20509E-002	5.52418E-004	...........
	805	201.5	6.22379E-002	6.19564E-002	5.52127E-004	...........
	806	201.75	6.21479E-002	6.18583E-002	5.51043E-004	...........
	807	202	6.20563E-002	6.17799E-002	5.45418E-004	...........
	808	202.25	6.19642E-002	6.16953E-002	5.49502E-004	...........
	809	202.5	6.18737E-002	6.15995E-002	5.53502E-004	...........
	810	202.75	6.17850E-002	6.15065E-002	5.47418E-004	...........
	811	203	6.16962E-002	6.14117E-002	5.51960E-004	...........
	812	203.25	6.16057E-002	6.13210E-002	5.46918E-004	...........
	813	203.5	6.15134E-002	6.12231E-002	5.45377E-004	...........
	814	203.75	6.14200E-002	6.11256E-002	5.45377E-004	...........
	815	204	6.13264E-002	6.10709E-002	5.47002E-004	...........
	816	204.25	6.12350E-002	6.09777E-002	5.47460E-004	...........
	817	204.5	6.11482E-002	6.08851E-002	5.48960E-004	...........
	818	204.75	6.10646E-002	6.08050E-002	5.48043E-004	...........
	819	205	6.09787E-002	6.06076E-002	5.50252E-004	...........
	820	205.25	6.08853E-002	6.06502E-002	5.48543E-004	...........
	821	205.5	6.07875E-002	6.05274E-002	5.47210E-004	...........
	822	205.75	6.06962E-002	6.04626E-002	5.46210E-004	...........
	823	206	6.06152E-002	6.03729E-002	5.45502E-004	...........
	824	206.25	6.05385E-002	6.02804E-002	5.45377E-004	...........
	825	206.5	6.04596E-002	6.02004E-002	5.46043E-004	...........
	826	206.75	6.03771E-002	6.01185E-002	5.47252E-004	...........
	827	207	6.02923E-002	6.00278E-002	5.40293E-004	...........
	828	207.25	6.02070E-002	5.99355E-002	5.46210E-004	...........
	829	207.5	6.01207E-002	5.98431E-002	5.41127E-004	...........
	830	207.75	6.00327E-002	5.97645E-002	5.40752E-004	...........
	831	208	5.99437E-002	5.96701E-002	5.48252E-004	...........
	832	208.25	5.98549E-002	5.95807E-002	5.45960E-004	...........
	833	208.5	5.97666E-002	5.95023E-002	5.48627E-004	...........
	834	208.75	5.96789E-002	5.94246E-002	5.47418E-004	...........
	835	209	5.95931E-002	5.93344E-002	5.51335E-004	...........
	836	209.25	5.95093E-002	5.92537E-002	5.47543E-004	...........
	837	209.5	5.94265E-002	5.91817E-002	5.42918E-004	...........
	838	209.75	5.93447E-002	5.91078E-002	5.43710E-004	...........
	839	210	5.92649E-002	5.90246E-002	5.44627E-004	...........
	840	210.25	5.91871E-002	5.89487E-002	5.46377E-004	...........
	841	210.5	5.91097E-002	5.88631E-002	5.41960E-004	...........
	842	210.75	5.90311E-002	5.87656E-002	5.50168E-004	...........
	843	211	5.89496E-002	5.86842E-002	5.50127E-004	...........
	844	211.25	5.88650E-002	5.86089E-002	5.44002E-004	...........
	845	211.5	5.87793E-002	5.85205E-002	5.40710E-004	...........
	846	211.75	5.86938E-002	5.83955E-002	5.49668E-004	...........
	847	212	5.86059E-002	5.83069E-002	5.48918E-004	...........
	848	212.25	5.85124E-002	5.82035E-002	5.42627E-004	...........
	849	212.5	5.84138E-002	5.81002E-002	5.41377E-004	...........
	850	212.75	5.83131E-002	5.80219E-002	5.39210E-004	...........
	851	213	5.82141E-002	5.79476E-002	5.45793E-004	...........
	852	213.25	5.81202E-002	5.78589E-002	5.47418E-004	...........
	853	213.5	5.80321E-002	5.77667E-002	5.41210E-004	...........
	854	213.75	5.79475E-002	5.76962E-002	5.46877E-004	...........
	855	214	5.78640E-002	5.76227E-002	5.43710E-004	...........
	856	214.25	5.77822E-002	5.75354E-002	5.45127E-004	...........
	857	214.5	5.77020E-002	5.74458E-002	5.42627E-004	...........
	858	214.75	5.76219E-002	5.73731E-002	5.37252E-004	...........
	859	215	5.75404E-002	5.72858E-002	5.40752E-004	...........
	860	215.25	5.74580E-002	5.71994E-002	5.40127E-004	...........
	861	215.5	5.73752E-002	5.71197E-002	5.41335E-004	...........
	862	215.75	5.72920E-002	5.70430E-002	5.42002E-004	...........
	863	216	5.72093E-002	5.69583E-002	5.39418E-004	...........
	864	216.25	5.71275E-002	5.68763E-002	5.44543E-004	...........
	865	216.5	5.70463E-002	5.67967E-002	5.42252E-004	...........
	866	216.75	5.69649E-002	5.67090E-002	5.38918E-004	...........
	867	217	5.68822E-002	5.65864E-002	5.41293E-004	...........
	868	217.25	5.67957E-002	5.65099E-002	5.39918E-004	...........
	869	217.5	5.67028E-002	5.63558E-002	5.39960E-004	...........
	870	217.75	5.65959E-002	5.59273E-002	5.41293E-004	...........
	871	218	5.64566E-002	5.59039E-002	5.37335E-004	...........
	872	218.25	5.62818E-002	5.59175E-002	5.38168E-004	...........
	873	218.5	5.61104E-002	5.59253E-002	5.40252E-004	...........
	874	218.75	5.59881E-002	5.58266E-002	5.41418E-004	...........
	875	219	5.59184E-002	5.57239E-002	5.44085E-004	...........
	876	219.25	5.58689E-002	5.56497E-002	5.41127E-004	...........
	877	219.5	5.58111E-002	5.55708E-002	5.42543E-004	...........
	878	219.75	5.57393E-002	5.54969E-002	5.43543E-004	...........
	879	220	5.56602E-002	5.54173E-002	5.41877E-004	...........
	880	220.25	5.55799E-002	5.53219E-002	5.42085E-004	...........
	881	220.5	5.54989E-002	5.52184E-002	5.47418E-004	...........
	882	220.75	5.54140E-002	5.51201E-002	5.40002E-004	...........
	883	221	5.53233E-002	5.50267E-002	5.38877E-004	...........
	884	221.25	5.52282E-002	5.49412E-002	5.42377E-004	...........
	885	221.5	5.51322E-002	5.48461E-002	5.39460E-004	...........
	886	221.75	5.50381E-002	5.47615E-002	5.45002E-004	...........
	887	222	5.49463E-002	5.46782E-002	5.40085E-004	...........
	888	222.25	5.48568E-002	5.45844E-002	5.38210E-004	...........
	889	222.5	5.47688E-002	5.45011E-002	5.40585E-004	...........
	890	222.75	5.46814E-002	5.44157E-002	5.44502E-004	...........
	891	223	5.45944E-002	5.43281E-002	5.43127E-004	...........
	892	223.25	5.45077E-002	5.42368E-002	5.47502E-004	...........
	893	223.5	5.44209E-002	5.41527E-002	5.46002E-004	...........
	894	223.75	5.43338E-002	5.40739E-002	5.47377E-004	...........
	895	224	5.42469E-002	5.39747E-002	5.45127E-004	...........
	896	224.25	5.41604E-002	5.38870E-002	5.46293E-004	...........
	897	224.5	5.40728E-002	5.37900E-002	5.44877E-004	...........
	898	224.75	5.39831E-002	5.36954E-002	5.43877E-004	...........
	899	225	5.38911E-002	5.35974E-002	5.43835E-004	...........
	900	225.25	5.37972E-002	5.35036E-002	5.38877E-004	...........
	901	225.5	5.37021E-002	5.34111E-002	5.44960E-004	...........
	902	225.75	5.36070E-002	5.33258E-002	5.44585E-004	...........
	903	226	5.35133E-002	5.32438E-002	5.40252E-004	...........
	904	226.25	5.34228E-002	5.31760E-002	5.41627E-004	...........
	905	226.5	5.33371E-002	5.31039E-002	5.37794E-004	...........
	906	226.75	5.32565E-002	5.30100E-002	5.47918E-004	...........
	907	227	5.31785E-002	5.29213E-002	5.47043E-004	...........
	908	227.25	5.30993E-002	5.28472E-002	5.44793E-004	...........
	909	227.5	5.30171E-002	5.27541E-002	5.44668E-004	...........
	910	227.75	5.29330E-002	5.26651E-002	5.41210E-004	...........
	911	228	5.28477E-002	5.25856E-002	5.41085E-004	...........
	912	228.25	5.27615E-002	5.24881E-002	5.42793E-004	...........
	913	228.5	5.26743E-002	5.23901E-002	5.40793E-004	...........
	914	228.75	5.25852E-002	5.23001E-002	5.43627E-004	...........
	915	229	5.24941E-002	5.22285E-002	5.42335E-004	...........
	916	229.25	5.24037E-002	5.21621E-002	5.39168E-004	...........
	917	229.5	5.23177E-002	5.20696E-002	5.45335E-004	...........
	918	229.75	5.22365E-002	5.19781E-002	5.40168E-004	...........
	919	230	5.21562E-002	5.18965E-002	5.39002E-004	...........
	920	230.25	5.20734E-002	5.18016E-002	5.40793E-004	...........
	921	230.5	5.19897E-002	5.18283E-002	5.44877E-004	...........
	922	230.75	5.19182E-002	5.20029E-002	5.42710E-004	...........
	923	231	5.18815E-002	5.19690E-002	5.47335E-004	...........
	924	231.25	5.18879E-002	5.19012E-002	5.46043E-004	...........
	925	231.5	5.19117E-002	5.18121E-002	5.39793E-004	...........
	926	231.75	5.19155E-002	5.17240E-002	5.39127E-004	...........
	927	232	5.18819E-002	5.16343E-002	5.30544E-004	...........
	928	232.25	5.18164E-002	5.15330E-002	5.40377E-004	...........
	929	232.5	5.17316E-002	5.14064E-002	5.39418E-004	...........
	930	232.75	5.16357E-002	5.13168E-002	5.39585E-004	...........
	931	233	5.15334E-002	5.12343E-002	5.43127E-004	...........
	932	233.25	5.14311E-002	5.11685E-002	5.42335E-004	...........
	933	233.5	5.13356E-002	5.10897E-002	5.44002E-004	...........
	934	233.75	5.12492E-002	5.09995E-002	5.39335E-004	...........
	935	234	5.11685E-002	5.09150E-002	5.43752E-004	...........
	936	234.25	5.10883E-002	5.08265E-002	5.39502E-004	...........
	937	234.5	5.10054E-002	5.07221E-002	5.42168E-004	...........
	938	234.75	5.09181E-002	5.06149E-002	5.44668E-004	...........
	939	235	5.08255E-002	5.05234E-002	5.42210E-004	...........
	940	235.25	5.07284E-002	5.04304E-002	5.41377E-004	...........
	941	235.5	5.06295E-002	5.03102E-002	5.43085E-004	...........
	942	235.75	5.05299E-002	5.02284E-002	5.38418E-004	...........
	943	236	5.04303E-002	5.01451E-002	5.38585E-004	...........
	944	236.25	5.03328E-002	5.00637E-002	5.43002E-004	...........
	945	236.5	5.02399E-002	4.99606E-002	5.45335E-004	...........
	946	236.75	5.01507E-002	4.98807E-002	5.43002E-004	...........
	947	237	5.00635E-002	4.98437E-002	5.47002E-004	...........
	948	237.25	4.99827E-002	4.98781E-002	5.43293E-004	...........
	949	237.5	4.99184E-002	4.97985E-002	5.38460E-004	...........
	950	237.75	4.98732E-002	4.97340E-002	5.41335E-004	...........
	951	238	4.98354E-002	4.96566E-002	5.40127E-004	...........
	952	238.25	4.97900E-002	4.95813E-002	5.39960E-004	...........
	953	238.5	4.97314E-002	4.95012E-002	5.36168E-004	...........
	954	238.75	4.96621E-002	4.94252E-002	5.44793E-004	...........
	955	239	4.95876E-002	4.93889E-002	5.45710E-004	...........
	956	239.25	4.95143E-002	4.93143E-002	5.39960E-004	...........
	957	239.5	4.94457E-002	4.92319E-002	5.38252E-004	...........
	958	239.75	4.93796E-002	4.91559E-002	5.36752E-004	...........
	959	240	4.93109E-002	4.90694E-002	5.44002E-004	...........
	960	240.25	4.92372E-002	4.89913E-002	5.41002E-004	...........
	961	240.5	4.91589E-002	4.89028E-002	5.35752E-004	...........
	962	240.75	4.90779E-002	4.88297E-002	5.38293E-004	...........
	963	241	4.89956E-002	4.87302E-002	5.36210E-004	...........
	964	241.25	4.89122E-002	4.86422E-002	5.38793E-004	...........
	965	241.5	4.88273E-002	4.85767E-002	5.39460E-004	...........
	966	241.75	4.87418E-002	4.84834E-002	5.38793E-004	...........
	967	242	4.86575E-002	4.83985E-002	5.34752E-004	...........
	968	242.25	4.85727E-002	4.82383E-002	5.43585E-004	...........
	969	242.5	4.84817E-002	4.81717E-002	5.37127E-004	...........
	970	242.75	4.83825E-002	4.80984E-002	5.42085E-004	...........
	971	243	4.82819E-002	4.80235E-002	5.36585E-004	...........
	972	243.25	4.81887E-002	4.79449E-002	5.40252E-004	...........
	973	243.5	4.81047E-002	4.78618E-002	5.40877E-004	...........
	974	243.75	4.80256E-002	4.77744E-002	5.41835E-004	...........
	975	244	4.79467E-002	4.76984E-002	5.39793E-004	...........
	976	244.25	4.78663E-002	4.76128E-002	5.38668E-004	...........
	977	244.5	4.77845E-002	4.75277E-002	5.39668E-004	...........
	978	244.75	4.77019E-002	4.74433E-002	5.40085E-004	...........
	979	245	4.76188E-002	4.73739E-002	5.42585E-004	...........
	980	245.25	4.75364E-002	4.72986E-002	5.42377E-004	...........
	981	245.5	4.74563E-002	4.72204E-002	5.39960E-004	...........
	982	245.75	4.73791E-002	4.71601E-002	5.40668E-004	...........
	983	246	4.73044E-002	4.70815E-002	5.47043E-004	...........
	984	246.25	4.72315E-002	4.70009E-002	5.44085E-004	...........
	985	246.5	4.71588E-002	4.69275E-002	5.43668E-004	...........
	986	246.75	4.70842E-002	4.68262E-002	5.40668E-004	...........
	987	247	4.70061E-002	4.67392E-002	5.42543E-004	...........
	988	247.25	4.69232E-002	4.66506E-002	5.43793E-004	...........
	989	247.5	4.68365E-002	4.65725E-002	5.42668E-004	...........
	990	247.75	4.67486E-002	4.64887E-002	5.41168E-004	...........
	991	248	4.66622E-002	4.64049E-002	5.39543E-004	...........
	992	248.25	4.65777E-002	4.63203E-002	5.46085E-004	...........
	993	248.5	4.64943E-002	4.62387E-002	5.45710E-004	...........
	994	248.75	4.64110E-002	4.61553E-002	5.45335E-004	...........
	995	249	4.63278E-002	4.60706E-002	5.43668E-004	...........
	996	249.25	4.62446E-002	4.59890E-002	5.44377E-004	...........
	997	249.5	4.61615E-002	4.59171E-002	5.42835E-004	...........
	998	249.75	4.60797E-002	4.58437E-002	5.40418E-004	...........
	999	250	4.60011E-002	4.58140E-002	5.42793E-004	...........
	1000	250.25	4.59296E-002	4.57808E-002	5.39668E-004	...........
	1001	250.5	4.58689E-002	4.57134E-002	5.36627E-004	...........
	1002	250.75	4.58170E-002	4.56408E-002	5.41293E-004	...........
	1003	251	4.57660E-002	4.55659E-002	5.44960E-004	...........
	1004	251.25	4.57091E-002	4.55114E-002	5.43043E-004	...........
	1005	251.5	4.56456E-002	4.54341E-002	5.41835E-004	...........
	1006	251.75	4.55786E-002	4.53657E-002	5.39460E-004	...........
	1007	252	4.55104E-002	4.53029E-002	5.42835E-004	...........
	1008	252.25	4.54417E-002	4.52267E-002	5.41835E-004	...........
	1009	252.5	4.53723E-002	4.51258E-002	5.45002E-004	...........
	1010	252.75	4.52997E-002	4.50431E-002	5.42668E-004	...........
	1011	253	4.52212E-002	4.49605E-002	5.46127E-004	...........
	1012	253.25	4.51372E-002	4.48474E-002	5.42293E-004	...........
	1013	253.5	4.50488E-002	4.47520E-002	5.44710E-004	...........
	1014	253.75	4.49562E-002	4.46686E-002	5.38835E-004	...........
	1015	254	4.48615E-002	4.45986E-002	5.43918E-004	...........
	1016	254.25	4.47693E-002	4.45172E-002	5.43293E-004	...........
	1017	254.5	4.46828E-002	4.44347E-002	5.41627E-004	...........
	1018	254.75	4.46011E-002	4.43574E-002	5.40418E-004	...........
	1019	255	4.45214E-002	4.42746E-002	5.42793E-004	...........
	1020	255.25	4.44420E-002	4.42022E-002	5.41210E-004	...........
	1021	255.5	4.43626E-002	4.41127E-002	5.37877E-004	...........
	1022	255.75	4.42829E-002	4.40254E-002	5.37293E-004	...........
	1023	256	4.42032E-002	4.40178E-002	5.41835E-004	...........
	1024	256.25	4.41272E-002	4.39186E-002	5.43002E-004	...........
	1025	256.5	4.40587E-002	4.38796E-002	5.44293E-004	...........
	1026	256.75	4.40031E-002	4.41646E-002	5.42460E-004	...........
	1027	257	4.39761E-002	4.39889E-002	5.40752E-004	...........
	1028	257.25	4.39798E-002	4.37612E-002	5.36460E-004	...........
	1029	257.5	4.39759E-002	4.37069E-002	5.43918E-004	...........
	1030	257.75	4.39238E-002	4.35323E-002	5.43252E-004	...........
	1031	258	4.38227E-002	4.34089E-002	5.43335E-004	...........
	1032	258.25	4.36966E-002	4.33588E-002	5.40252E-004	...........
	1033	258.5	4.35691E-002	4.32769E-002	5.43543E-004	...........
	1034	258.75	4.34563E-002	4.31845E-002	5.43252E-004	...........
	1035	259	4.33611E-002	4.31250E-002	5.45168E-004	...........
	1036	259.25	4.32777E-002	4.30502E-002	5.40960E-004	...........
	1037	259.5	4.32005E-002	4.29707E-002	5.44335E-004	...........
	1038	259.75	4.31256E-002	4.28600E-002	5.45668E-004	...........
	1039	260	4.30479E-002	4.27778E-002	5.44127E-004	...........
	1040	260.25	4.29641E-002	4.26797E-002	5.43918E-004	...........
	1041	260.5	4.28746E-002	4.25871E-002	5.43960E-004	...........
	1042	260.75	4.27829E-002	4.25367E-002	5.46210E-004	...........
	1043	261	4.26943E-002	4.24835E-002	5.41543E-004	...........
	1044	261.25	4.26143E-002	4.24056E-002	5.40835E-004	...........
	1045	261.5	4.25431E-002	4.23186E-002	5.43252E-004	...........
	1046	261.75	4.24749E-002	4.22449E-002	5.37002E-004	...........
	1047	262	4.24038E-002	4.21732E-002	5.40460E-004	...........
	1048	262.25	4.23296E-002	4.21164E-002	5.41043E-004	...........
	1049	262.5	4.22558E-002	4.20433E-002	5.39877E-004	...........
	1050	262.75	4.21852E-002	4.19934E-002	5.46252E-004	...........
	1051	263	4.21185E-002	4.19218E-002	5.44585E-004	...........
	1052	263.25	4.20543E-002	4.18525E-002	5.37710E-004	...........
	1053	263.5	4.19905E-002	4.17858E-002	5.41127E-004	...........
	1054	263.75	4.19254E-002	4.17196E-002	5.36377E-004	...........
	1055	264	4.18587E-002	4.16454E-002	5.41627E-004	...........
	1056	264.25	4.17906E-002	4.15599E-002	5.38543E-004	...........
	1057	264.5	4.17203E-002	4.15073E-002	5.35293E-004	...........
	1058	264.75	4.16485E-002	4.14303E-002	5.41293E-004	...........
	1059	265	4.15769E-002	4.13570E-002	5.35502E-004	...........
	1060	265.25	4.15060E-002	4.12874E-002	5.40752E-004	...........
	1061	265.5	4.14352E-002	4.12176E-002	5.37418E-004	...........
	1062	265.75	4.13643E-002	4.11546E-002	5.41085E-004	...........
	1063	266	4.12940E-002	4.10701E-002	5.42252E-004	...........
	1064	266.25	4.12239E-002	4.10074E-002	5.39127E-004	...........
	1065	266.5	4.11533E-002	4.09414E-002	5.40752E-004	...........
	1066	266.75	4.10830E-002	4.08758E-002	5.34502E-004	...........
	1067	267	4.10141E-002	4.08141E-002	5.36710E-004	...........
	1068	267.25	4.09464E-002	4.07023E-002	5.37002E-004	...........
	1069	267.5	4.08758E-002	4.05950E-002	5.40085E-004	...........
	1070	267.75	4.07931E-002	4.03281E-002	5.36627E-004	...........
	1071	268	4.06850E-002	4.01866E-002	5.33585E-004	...........
	1072	268.25	4.05289E-002	3.92177E-002	5.37710E-004	...........
	1073	268.5	4.02703E-002	3.83153E-002	5.41835E-004	...........
	1074	268.75	3.98470E-002	3.81271E-002	5.41043E-004	...........
	1075	269	3.92887E-002	3.79840E-002	5.43960E-004	...........
	1076	269.25	3.87358E-002	3.79192E-002	5.47877E-004	...........
	1077	269.5	3.83189E-002	3.79110E-002	5.44085E-004	...........
	1078	269.75	3.80706E-002	3.79032E-002	5.43502E-004	...........
	1079	270	3.79514E-002	3.78725E-002	5.42668E-004	...........
	1080	270.25	3.79035E-002	3.78161E-002	5.43210E-004	...........
	1081	270.5	3.78800E-002	3.77707E-002	5.41460E-004	...........
	1082	270.75	3.78549E-002	3.77526E-002	5.41793E-004	...........
	1083	271	3.78219E-002	3.77029E-002	5.44085E-004	...........
	1084	271.25	3.77844E-002	3.76399E-002	5.40168E-004	...........
	1085	271.5	3.77434E-002	3.75908E-002	5.43960E-004	...........
	1086	271.75	3.76978E-002	3.75376E-002	5.41877E-004	...........
	1087	272	3.76479E-002	3.74964E-002	5.43418E-004	...........
	1088	272.25	3.75970E-002	3.74672E-002	5.46210E-004	...........
	1089	272.5	3.75492E-002	3.74322E-002	5.40877E-004	...........
	1090	272.75	3.75065E-002	3.73868E-002	5.42002E-004	...........
	1091	273	3.74675E-002	3.73422E-002	5.45877E-004	...........
	1092	273.25	3.74288E-002	3.72944E-002	5.43002E-004	...........
	1093	273.5	3.73881E-002	3.72620E-002	5.36877E-004	...........
	1094	273.75	3.73457E-002	3.72075E-002	5.46793E-004	...........
	1095	274	3.73022E-002	3.71565E-002	5.43793E-004	...........
	1096	274.25	3.72576E-002	3.71235E-002	5.41418E-004	...........
	1097	274.5	3.72121E-002	3.70722E-002	5.45835E-004	...........
	1098	274.75	3.71664E-002	3.70130E-002	5.42502E-004	...........
	1099	275	3.71197E-002	3.69529E-002	5.43960E-004	...........
	1100	275.25	3.70697E-002	3.68977E-002	5.38752E-004	...........
	1101	275.5	3.70158E-002	3.68387E-002	5.46335E-004	...........
	1102	275.75	3.69592E-002	3.67764E-002	5.44918E-004	...........
	1103	276	3.69012E-002	3.67266E-002	5.38168E-004	...........
	1104	276.25	3.68431E-002	3.66731E-002	5.39918E-004	...........
	1105	276.5	3.67856E-002	3.65954E-002	5.42752E-004	...........
	1106	276.75	3.67280E-002	3.65421E-002	5.41502E-004	...........
	1107	277	3.66687E-002	3.64891E-002	5.41293E-004	...........
	1108	277.25	3.66085E-002	3.64273E-002	5.38335E-004	...........
	1109	277.5	3.65489E-002	3.63614E-002	5.37794E-004	...........
	1110	277.75	3.64894E-002	3.62970E-002	5.40918E-004	...........
	1111	278	3.64283E-002	3.62098E-002	5.42585E-004	...........
	1112	278.25	3.63632E-002	3.61298E-002	5.36877E-004	...........
	1113	278.5	3.62927E-002	3.60617E-002	5.42168E-004	...........
	1114	278.75	3.62182E-002	3.60002E-002	5.42085E-004	...........
	1115	279	3.61436E-002	3.59330E-002	5.39793E-004	...........
	1116	279.25	3.60721E-002	3.58653E-002	5.44252E-004	...........
	1117	279.5	3.60036E-002	3.57900E-002	5.42502E-004	...........
	1118	279.75	3.59362E-002	3.57348E-002	5.42668E-004	...........
	1119	280	3.58689E-002	3.56689E-002	5.43210E-004	...........
	1120	280.25	3.58024E-002	3.55973E-002	5.41960E-004	...........
	1121	280.5	3.57368E-002	3.55395E-002	5.39752E-004	...........
	1122	280.75	3.56717E-002	3.54736E-002	5.36210E-004	...........
	1123	281	3.56067E-002	3.53967E-002	5.43835E-004	...........
	1124	281.25	3.55411E-002	3.53343E-002	5.43502E-004	...........
	1125	281.5	3.54745E-002	3.52761E-002	5.37502E-004	...........
	1126	281.75	3.54080E-002	3.52162E-002	5.41418E-004	...........
	1127	282	3.53431E-002	3.51491E-002	5.35918E-004	...........
	1128	282.25	3.52802E-002	3.50906E-002	5.38293E-004	...........
	1129	282.5	3.52179E-002	3.50129E-002	5.37627E-004	...........
	1130	282.75	3.51541E-002	3.49295E-002	5.41543E-004	...........
	1131	283	3.50868E-002	3.48653E-002	5.44835E-004	...........
	1132	283.25	3.50160E-002	3.48093E-002	5.40252E-004	...........
	1133	283.5	3.49448E-002	3.47420E-002	5.35710E-004	...........
	1134	283.75	3.48762E-002	3.46719E-002	5.42127E-004	...........
	1135	284	3.48101E-002	3.46099E-002	5.36918E-004	...........
	1136	284.25	3.47448E-002	3.45429E-002	5.38293E-004	...........
	1137	284.5	3.46793E-002	3.44715E-002	5.41293E-004	...........
	1138	284.75	3.46133E-002	3.44162E-002	5.41127E-004	...........
	1139	285	3.45503E-002	3.44985E-002	5.36127E-004	...........
	1140	285.25	3.44999E-002	3.44306E-002	5.43502E-004	...........
	1141	285.5	3.44675E-002	3.43322E-002	5.44752E-004	...........
	1142	285.75	3.44406E-002	3.42550E-002	5.41793E-004	...........
	1143	286	3.44001E-002	3.41914E-002	5.46377E-004	...........
	1144	286.25	3.43408E-002	3.41186E-002	5.44710E-004	...........
	1145	286.5	3.42706E-002	3.40489E-002	5.47127E-004	...........
	1146	286.75	3.41977E-002	3.39835E-002	5.40002E-004	...........
	1147	287	3.41260E-002	3.39129E-002	5.46793E-004	...........
	1148	287.25	3.40559E-002	3.38380E-002	5.43335E-004	...........
	1149	287.5	3.39864E-002	3.37725E-002	5.46335E-004	...........
	1150	287.75	3.39165E-002	3.36974E-002	5.40918E-004	...........
	1151	288	3.38403E-002	3.33226E-002	5.39502E-004	...........
	1152	288.25	3.37383E-002	3.32038E-002	5.40460E-004	...........
	1153	288.5	3.35956E-002	3.31514E-002	5.46627E-004	...........
	1154	288.75	3.34312E-002	3.30891E-002	5.42377E-004	...........
	1155	289	3.32835E-002	3.30081E-002	5.39377E-004	...........
	1156	289.25	3.31710E-002	3.29523E-002	5.36752E-004	...........
	1157	289.5	3.30871E-002	3.29006E-002	5.43793E-004	...........
	1158	289.75	3.30193E-002	3.28508E-002	5.37293E-004	...........
	1159	290	3.29600E-002	3.27967E-002	5.37752E-004	...........
	1160	290.25	3.29054E-002	3.27462E-002	5.40127E-004	...........
	1161	290.5	3.28529E-002	3.26922E-002	5.37210E-004	...........
	1162	290.75	3.28009E-002	3.26299E-002	5.37918E-004	...........
	1163	291	3.27479E-002	3.25793E-002	5.36752E-004	...........
	1164	291.25	3.26937E-002	3.25361E-002	5.40210E-004	...........
	1165	291.5	3.26397E-002	3.24873E-002	5.38168E-004	...........
	1166	291.75	3.25880E-002	3.24417E-002	5.42793E-004	...........
	1167	292	3.25603E-002	3.35162E-002	5.37252E-004	...........
	1168	292.25	3.26281E-002	3.36755E-002	5.37627E-004	...........
	1169	292.5	3.28497E-002	3.36669E-002	5.34877E-004	...........
	1170	292.75	3.31639E-002	3.36154E-002	5.42877E-004	...........
	1171	293	3.34328E-002	3.35474E-002	5.39752E-004	...........
	1172	293.25	3.35758E-002	3.34732E-002	5.40002E-004	...........
	1173	293.5	3.36024E-002	3.33951E-002	5.40210E-004	...........
	1174	293.75	3.35593E-002	3.33148E-002	5.37627E-004	...........
	1175	294	3.34863E-002	3.32315E-002	5.36877E-004	...........
	1176	294.25	3.34046E-002	3.31591E-002	5.39418E-004	...........
	1177	294.5	3.33225E-002	3.30855E-002	5.39335E-004	...........
	1178	294.75	3.32431E-002	3.30223E-002	5.36418E-004	...........
	1179	295	3.31671E-002	3.29453E-002	5.39293E-004	...........
	1180	295.25	3.30938E-002	3.28482E-002	5.42335E-004	...........
	1181	295.5	3.30196E-002	3.27612E-002	5.39335E-004	...........
	1182	295.75	3.29407E-002	3.26760E-002	5.44752E-004	...........
	1183	296	3.28568E-002	3.25901E-002	5.42502E-004	...........
	1184	296.25	3.27701E-002	3.24928E-002	5.43002E-004	...........
	1185	296.5	3.26821E-002	3.24079E-002	5.44710E-004	...........
	1186	296.75	3.25932E-002	3.23220E-002	5.49418E-004	...........
	1187	297	3.25036E-002	3.22101E-002	5.44043E-004	...........
	1188	297.25	3.24121E-002	3.20860E-002	5.44752E-004	...........
	1189	297.5	3.23157E-002	3.20073E-002	5.43210E-004	...........
	1190	297.75	3.22107E-002	3.17211E-002	5.39918E-004	...........
	1191	298	3.20749E-002	3.08404E-002	5.43543E-004	...........
	1192	298.25	3.18054E-002	2.80856E-002	5.37168E-004	...........
	1193	298.5	3.11677E-002	2.52756E-002	5.46002E-004	...........
	1194	298.75	2.99745E-002	2.61238E-002	5.37877E-004	...........
	1195	299	2.84887E-002	2.87263E-002	5.39502E-004	...........
	1196	299.25	2.74449E-002	3.01284E-002	5.38835E-004	...........
	1197	299.5	2.74025E-002	3.07678E-002	5.32752E-004	...........
	1198	299.75	2.82260E-002	3.10038E-002	5.40252E-004	...........
	1199	300	2.93314E-002	3.10063E-002	5.44502E-004	...........
EOC	QUANT	0.0293314	Open Circuit (V)
PSTATMODEL	IQUANT	4	Pstat Model
PSTATSECTION	LABEL	REF600-19025	Pstat Section
PSTATSERIALNO	LABEL	19025	Pstat Serial Number
CTRLMODE	IQUANT	1	Control Mode
IESTAB	IQUANT	0	I/E Stability
CASPEED	IQUANT	1	Control Amp Speed
CONVENTION	IQUANT	1	Current Convention
ICHRANGE	IQUANT	2	Ich Range
ICHRANGEMODE	TOGGLE	F	Ich Auto Range
ICHOFFSETENABLE	TOGGLE	T	Ich Offset Enable
ICHOFFSET	QUANT	0	Ich Offset (V)
ICHFILTER	IQUANT	3	Ich Filter
VCHRANGE	IQUANT	2	Vch Range
VCHRANGEMODE	TOGGLE	F	Vch Auto Range
VCHOFFSETENABLE	TOGGLE	T	Vch Offset Enable
VCHOFFSET	QUANT	0	Vch Offset (V)
VCHFILTER	IQUANT	3	Vch Filter
ACHRANGE	IQUANT	2	Ach Range
ACHOFFSETENABLE	TOGGLE	F	Ach Offset Enable
ACHOFFSET	QUANT	0	Ach Offset (V)
ACHFILTER	IQUANT	1	Ach Filter
IERANGELOWERLIMIT	IQUANT	1	I/E Range Lower Limit
IERANGEMODE	TOGGLE	F	I/E AutoRange
IERANGE	IQUANT	2	I/E Range
POSFEEDENABLE	TOGGLE	F	Positive Feedback IR Comp
POSFEEDRESISTANCE	QUANT	0	Positive Feedback Resistance (ohm)
ACHSELECT	IQUANT	0	Ach Select
CABLEID	IQUANT	13	Cable ID
DCCALDATE	LABEL	2017-4-11	DC Calibration Date
ACCALDATE	LABEL	2017-4-11	AC Calibration Date
THERMOSELECT	IQUANT	1	Thermo Select
FRAMEWORKVERSION	QUANT	6.04	Framework Version
INSTRUMENTVERSION	LABEL	3.04	Instrument Version
ZCURVE	TABLE
	Pt	Time	Freq	Zreal	Zimag	Zsig	Zmod	Zphz	Idc	Vdc	IERange
	#	s	Hz	ohm	ohm	V	ohm		A	V	#
	0	3	100078.1	5511.543	-11091.36	1	12385.29	-63.5762	1.118542E-006	0.0296277	8
	1	5	63140.62	6153.413	-17061.88	1	18137.59	-70.16802	5.904818E-007	0.0300069	8
	2	7	39890.62	7295.58	-25864.11	1	26873.37	-74.24765	-1.142697E-006	0.0313423	7
	3	9	25171.88	8966.47	-39817.34	1	40814.44	-77.30925	6.520506E-007	0.0282214	7
	4	12	15890.62	11904.2	-60694.66	1	61851.05	-78.90329	3.519699E-007	0.029984	7
	5	15	10078.13	16372.99	-91985.34	1	93431.13	-79.9073	-5.433238E-008	0.0304618	7
	6	20	6328.125	23543.53	-140481	1	142440.2	-80.48608	-8.348479E-007	0.0311662	7
	7	26	3984.375	35528.55	-214469.5	1	217392.4	-80.59393	1.465147E-007	0.0271371	6
	8	29	2527.573	52844.14	-322443.3	1	326744.9	-80.69273	-1.751356E-007	0.0314601	6
	9	33	1577.524	78542.85	-491348.7	1	497586.7	-80.91801	-1.966957E-007	0.0322403	6
	10	35	998.264	137678.4	-749616.5	1	762155	-79.59275	-1.675632E-007	0.0326364	6
	11	38	627.7902	206587.1	-1087192	1	1106646	-79.24098	1.024241E-007	0.0294577	6
	12	42	397.9953	335682.7	-1632929	1	1667075	-78.38348	-8.015492E-011	0.0296888	5
	13	46	252.4038	532446.8	-2416234	1	2474204	-77.57278	-5.981851E-011	0.0296868	5
	14	48	158.3615	841920.1	-3610415	1	3707280	-76.87366	-4.690774E-011	0.0296887	5
	15	50	100.4464	1326568	-5339595	1	5501914	-76.04792	-9.79599E-011	0.0296898	5
	16	53	63.3446	2067309	-7738698	1	8010070	-75.04331	-7.534128E-011	0.0296947	5
	17	56	38.42213	3538140	-1.18461E+007	1	1.236319E+007	-73.3704	-6.024114E-012	0.029702	4
	18	59	24.93351	5428437	-1.633043E+007	1	1.720903E+007	-71.61255	1.774837E-012	0.0296957	4
	19	61	15.625	8764214	-2.310982E+007	1	2.471589E+007	-69.23117	3.531493E-012	0.0296969	4
	20	64	9.93114	1.329548E+007	-3.200492E+007	1	3.465667E+007	-67.44103	-4.282284E-012	0.0296983	4
	21	67	6.317385	2.020731E+007	-4.513693E+007	1	4.945379E+007	-65.88245	4.209422E-012	0.0297106	4
	22	71	3.945707	3.060142E+007	-6.225263E+007	1	6.936741E+007	-63.82273	6.26161E-012	0.0297007	4
	23	78	2.504006	4.485052E+007	-8.337355E+007	1	9.467164E+007	-61.72212	5.939636E-012	0.0297205	3
	24	85	1.584686	6.328648E+007	-1.110206E+008	1	1.277919E+008	-60.31502	6.020984E-012	0.029701	3
	25	90	0.999041	8.830777E+007	-1.474755E+008	1	1.718932E+008	-59.08698	6.139648E-012	0.0297481	3
	26	97	0.633446	1.189477E+008	-1.954483E+008	1	2.287981E+008	-58.67577	5.796184E-012	0.0289867	3
	27	109	0.400641	1.601464E+008	-2.61544E+008	1	3.066792E+008	-58.52038	7.111026E-012	0.028983	2
	28	123	0.2520161	2.1367E+008	-3.543174E+008	1	4.13758E+008	-58.90806	7.069231E-012	0.0289782	2
	29	145	0.1588983	2.827018E+008	-4.816229E+008	1	5.58463E+008	-59.58802	7.194528E-012	0.0289852	2
	30	178	0.1001603	3.669727E+008	-6.547128E+008	1	7.50545E+008	-60.72895	7.546864E-012	0.0289908	2
