EXPLAIN
TAG	EISPOT
TITLE	LABEL	Potentiostatic EIS	Test &Identifier
DATE	LABEL	2017-4-15	Date
TIME	LABEL	16:36:17	Time
NOTES	NOTES	2	&Notes...
	
	
PSTAT	PSTAT	REF600-19025	Potentiostat
VDC	POTEN	0.00000E+000	T	DC &Voltage (V)
FREQINIT	QUANT	1.00000E+005	Initial Fre&q. (Hz)
FREQFINAL	QUANT	1.00000E-001	Final Fre&q. (Hz)
PTSPERDEC	QUANT	5.00000E+000	Points/&decade
VAC	QUANT	2.00000E+001	AC &Voltage (mV rms)
AREA	QUANT	1.00000E+000	&Area (cm^2)
CONDIT	TWOPARAM	F	1.50000E+001	0.00000E+000	Conditionin&g	Time(s)	E(V)
DELAY	TWOPARAM	T	3.00000E+002	0.00000E+000	Init. De&lay	Time(s)	Stab.(mV/s)
SPEED	SELECTOR	2	&Optimize for:
ZGUESS	QUANT	1.00000E+008	E&stimated Z (ohms)
OCVCURVE	TABLE	518
	Pt	T	Vf	Vm	Ach	Over
	#	s	V vs. Ref.	V	V	bits
	0	0.25	-1.24863E-001	-1.24863E-001	4.08486E-004	...........
	1	0.5	-1.24936E-001	-1.28649E-001	4.06194E-004	...........
	2	0.75	-1.25358E-001	-1.31101E-001	4.08194E-004	...........
	3	1	-1.26504E-001	-1.34682E-001	4.03444E-004	...........
	4	1.25	-1.28435E-001	-1.33797E-001	4.06527E-004	...........
	5	1.5	-1.30637E-001	-1.32367E-001	4.07111E-004	...........
	6	1.75	-1.32304E-001	-1.32330E-001	4.06069E-004	...........
	7	2	-1.33047E-001	-1.34583E-001	4.06777E-004	...........
	8	2.25	-1.33281E-001	-1.37032E-001	4.07777E-004	...........
	9	2.5	-1.33769E-001	-1.38736E-001	4.07486E-004	...........
	10	2.75	-1.34757E-001	-1.32533E-001	4.05736E-004	...........
	11	3	-1.35662E-001	-1.36164E-001	4.12861E-004	...........
	12	3.25	-1.35909E-001	-1.35548E-001	4.04944E-004	...........
	13	3.5	-1.35671E-001	-1.33848E-001	4.09611E-004	...........
	14	3.75	-1.35439E-001	-1.39841E-001	4.14944E-004	...........
	15	4	-1.35212E-001	-1.18206E-001	4.15861E-004	...........
	16	4.25	-1.34026E-001	-1.22796E-001	4.09944E-004	...........
	17	4.5	-1.31067E-001	-1.25251E-001	4.09777E-004	...........
	18	4.75	-1.27287E-001	-1.16559E-001	4.05611E-004	...........
	19	5	-1.24245E-001	-1.26063E-001	4.11194E-004	...........
	20	5.25	-1.22952E-001	-1.44858E-001	4.07152E-004	...........
	21	5.5	-1.24666E-001	-1.42966E-001	4.13527E-004	...........
	22	5.75	-1.29858E-001	-1.52926E-001	4.13319E-004	...........
	23	6	-1.36967E-001	-1.54896E-001	4.07902E-004	...........
	24	6.25	-1.43783E-001	-1.49261E-001	4.01861E-004	...........
	25	6.5	-1.48603E-001	-1.45823E-001	4.05361E-004	...........
	26	6.75	-1.50556E-001	-1.50030E-001	4.02277E-004	...........
	27	7	-1.50479E-001	-1.58259E-001	4.03111E-004	...........
	28	7.25	-1.50562E-001	-1.58545E-001	4.07069E-004	...........
	29	7.5	-1.52076E-001	-1.53529E-001	4.08277E-004	...........
	30	7.75	-1.53974E-001	-1.45342E-001	4.04819E-004	...........
	31	8	-1.54432E-001	-1.55317E-001	4.08861E-004	...........
	32	8.25	-1.53539E-001	-1.59964E-001	4.10319E-004	...........
	33	8.5	-1.53245E-001	-1.59385E-001	4.04111E-004	...........
	34	8.75	-1.54663E-001	-1.62063E-001	4.08111E-004	...........
	35	9	-1.57150E-001	-1.66718E-001	4.03986E-004	...........
	36	9.25	-1.59942E-001	-1.70795E-001	4.05444E-004	...........
	37	9.5	-1.63196E-001	-1.84086E-001	4.05902E-004	...........
	38	9.75	-1.67936E-001	-2.04178E-001	4.04194E-004	...........
	39	10	-1.75855E-001	-2.29948E-001	4.09527E-004	...........
	40	10.25	-1.88211E-001	-2.36772E-001	4.05694E-004	...........
	41	10.5	-2.03751E-001	-2.33892E-001	4.05194E-004	...........
	42	10.75	-2.17603E-001	-1.91055E-001	4.10111E-004	...........
	43	11	-2.22762E-001	-1.57965E-001	4.02944E-004	...........
	44	11.25	-2.14751E-001	-1.54529E-001	4.03152E-004	...........
	45	11.5	-1.96643E-001	-1.58987E-001	4.04819E-004	...........
	46	11.75	-1.77544E-001	-1.61634E-001	4.03361E-004	...........
	47	12	-1.64906E-001	-1.62605E-001	4.07861E-004	...........
	48	12.25	-1.59878E-001	-1.59738E-001	4.05111E-004	...........
	49	12.5	-1.59436E-001	-1.65224E-001	4.01736E-004	...........
	50	12.75	-1.60511E-001	-1.61150E-001	4.02277E-004	...........
	51	13	-1.61433E-001	-1.53138E-001	4.05944E-004	...........
	52	13.25	-1.61208E-001	-1.56312E-001	3.99819E-004	...........
	53	13.5	-1.59817E-001	-1.64715E-001	4.00402E-004	...........
	54	13.75	-1.58873E-001	-1.70630E-001	3.98361E-004	...........
	55	14	-1.59975E-001	-1.63984E-001	4.01694E-004	...........
	56	14.25	-1.62546E-001	-1.64463E-001	4.02652E-004	...........
	57	14.5	-1.64782E-001	-1.71809E-001	3.99361E-004	...........
	58	14.75	-1.66242E-001	-1.73684E-001	4.02819E-004	...........
	59	15	-1.67960E-001	-1.79512E-001	4.05069E-004	...........
	60	15.25	-1.70661E-001	-1.81391E-001	4.05194E-004	...........
	61	15.5	-1.74078E-001	-1.82084E-001	4.02736E-004	...........
	62	15.75	-1.77318E-001	-1.77296E-001	4.08944E-004	...........
	63	16	-1.79284E-001	-1.73419E-001	4.04027E-004	...........
	64	16.25	-1.79431E-001	-1.80209E-001	4.04527E-004	...........
	65	16.5	-1.78610E-001	-1.83714E-001	4.11069E-004	...........
	66	16.75	-1.78474E-001	-1.83869E-001	4.07402E-004	...........
	67	17	-1.79742E-001	-1.86635E-001	4.03902E-004	...........
	68	17.25	-1.81876E-001	-1.89516E-001	4.09236E-004	...........
	69	17.5	-1.84226E-001	-1.90801E-001	4.07569E-004	...........
	70	17.75	-1.86524E-001	-1.91765E-001	4.08694E-004	...........
	71	18	-1.88580E-001	-1.92200E-001	4.11736E-004	...........
	72	18.25	-1.90217E-001	-1.93196E-001	4.07819E-004	...........
	73	18.5	-1.91393E-001	-1.92565E-001	4.09694E-004	...........
	74	18.75	-1.92205E-001	-1.95063E-001	4.08694E-004	...........
	75	19	-1.92845E-001	-1.94666E-001	4.03361E-004	...........
	76	19.25	-1.93512E-001	-1.96458E-001	4.01444E-004	...........
	77	19.5	-1.94417E-001	-2.03797E-001	4.04152E-004	...........
	78	19.75	-1.96006E-001	-2.07293E-001	4.05819E-004	...........
	79	20	-1.98636E-001	-2.06426E-001	4.04069E-004	...........
	80	20.25	-2.01800E-001	-2.06006E-001	4.02236E-004	...........
	81	20.5	-2.04451E-001	-2.09030E-001	4.07194E-004	...........
	82	20.75	-2.06136E-001	-2.07848E-001	3.99736E-004	...........
	83	21	-2.07134E-001	-2.08355E-001	4.01277E-004	...........
	84	21.25	-2.07697E-001	-2.05596E-001	4.02277E-004	...........
	85	21.5	-2.07811E-001	-2.07665E-001	4.04444E-004	...........
	86	21.75	-2.07432E-001	-2.00056E-001	4.02069E-004	...........
	87	22	-2.06602E-001	-2.08722E-001	4.00611E-004	...........
	88	22.25	-2.05751E-001	-2.08008E-001	4.04777E-004	...........
	89	22.5	-2.05563E-001	-2.05788E-001	4.04652E-004	...........
	90	22.75	-2.05914E-001	-2.00189E-001	4.07652E-004	...........
	91	23	-2.05791E-001	-2.02231E-001	4.08027E-004	...........
	92	23.25	-2.04766E-001	-2.04060E-001	4.02527E-004	...........
	93	23.5	-2.03646E-001	-2.06800E-001	4.01444E-004	...........
	94	23.75	-2.03471E-001	-2.09518E-001	4.07611E-004	...........
	95	24	-2.04557E-001	-2.11659E-001	4.02152E-004	...........
	96	24.25	-2.06485E-001	-2.10384E-001	3.99652E-004	...........
	97	24.5	-2.08490E-001	-2.11097E-001	4.03611E-004	...........
	98	24.75	-2.09990E-001	-2.13643E-001	4.00486E-004	...........
	99	25	-2.11027E-001	-2.14784E-001	4.06069E-004	...........
	100	25.25	-2.11984E-001	-2.13551E-001	4.04777E-004	...........
	101	25.5	-2.12772E-001	-2.06183E-001	3.98527E-004	...........
	102	25.75	-2.12767E-001	-2.11275E-001	4.03527E-004	...........
	103	26	-2.11844E-001	-2.10229E-001	4.09277E-004	...........
	104	26.25	-2.10885E-001	-2.15557E-001	4.04652E-004	...........
	105	26.5	-2.10867E-001	-2.15828E-001	4.07194E-004	...........
	106	26.75	-2.11968E-001	-2.16425E-001	4.04736E-004	...........
	107	27	-2.13616E-001	-2.16811E-001	4.05319E-004	...........
	108	27.25	-2.15089E-001	-2.16368E-001	4.01861E-004	...........
	109	27.5	-2.16034E-001	-2.16711E-001	4.06194E-004	...........
	110	27.75	-2.16484E-001	-2.16821E-001	3.99902E-004	...........
	111	28	-2.16658E-001	-2.17275E-001	4.05236E-004	...........
	112	28.25	-2.16769E-001	-2.17102E-001	3.98611E-004	...........
	113	28.5	-2.16902E-001	-2.17214E-001	3.99027E-004	...........
	114	28.75	-2.16841E-001	-2.07082E-001	4.03902E-004	...........
	115	29	-2.15858E-001	-2.03268E-001	4.10652E-004	...........
	116	29.25	-2.13333E-001	-2.04990E-001	4.07652E-004	...........
	117	29.5	-2.09925E-001	-2.07813E-001	4.05402E-004	...........
	118	29.75	-2.07124E-001	-2.00276E-001	4.08402E-004	...........
	119	30	-2.05194E-001	-1.89974E-001	4.05069E-004	...........
	120	30.25	-2.02973E-001	-2.00552E-001	4.10319E-004	...........
	121	30.5	-2.00250E-001	-1.99550E-001	4.12236E-004	...........
	122	30.75	-1.98310E-001	-1.95919E-001	4.10319E-004	...........
	123	31	-1.97654E-001	-1.96471E-001	4.09902E-004	...........
	124	31.25	-1.97454E-001	-1.96359E-001	4.07777E-004	...........
	125	31.5	-1.97158E-001	-1.98356E-001	4.02777E-004	...........
	126	31.75	-1.97012E-001	-2.00398E-001	4.05944E-004	...........
	127	32	-1.97351E-001	-1.97904E-001	4.12944E-004	...........
	128	32.25	-1.97972E-001	-1.96679E-001	4.12236E-004	...........
	129	32.5	-1.98349E-001	-1.99902E-001	4.08319E-004	...........
	130	32.75	-1.98460E-001	-2.02537E-001	4.11194E-004	...........
	131	33	-1.98928E-001	-2.05115E-001	4.13027E-004	...........
	132	33.25	-2.00056E-001	-1.98198E-001	4.10111E-004	...........
	133	33.5	-2.01102E-001	-1.96340E-001	4.07069E-004	...........
	134	33.75	-2.01142E-001	-2.03554E-001	4.10194E-004	...........
	135	34	-2.00547E-001	-2.03144E-001	4.07902E-004	...........
	136	34.25	-2.00464E-001	-2.01582E-001	4.08486E-004	...........
	137	34.5	-2.01129E-001	-2.03708E-001	4.11944E-004	...........
	138	34.75	-2.02036E-001	-2.07794E-001	4.13402E-004	...........
	139	35	-2.03111E-001	-2.07795E-001	4.14527E-004	...........
	140	35.25	-2.04515E-001	-2.07479E-001	4.09527E-004	...........
	141	35.5	-2.05962E-001	-2.07485E-001	4.06277E-004	...........
	142	35.75	-2.06985E-001	-2.07636E-001	4.09194E-004	...........
	143	36	-2.07476E-001	-2.07726E-001	4.10444E-004	...........
	144	36.25	-2.07637E-001	-2.07799E-001	4.12277E-004	...........
	145	36.5	-2.07686E-001	-2.07751E-001	4.09402E-004	...........
	146	36.75	-2.07718E-001	-2.07812E-001	4.07944E-004	...........
	147	37	-2.07750E-001	-2.07830E-001	4.14486E-004	...........
	148	37.25	-2.07778E-001	-2.07833E-001	4.08694E-004	...........
	149	37.5	-2.07771E-001	-2.06287E-001	4.04611E-004	...........
	150	37.75	-2.07574E-001	-2.03108E-001	4.08319E-004	...........
	151	38	-2.06938E-001	-2.03608E-001	4.09944E-004	...........
	152	38.25	-2.05874E-001	-2.04283E-001	4.13444E-004	...........
	153	38.5	-2.04840E-001	-2.05100E-001	4.14027E-004	...........
	154	38.75	-2.04322E-001	-2.05761E-001	4.07819E-004	...........
	155	39	-2.04419E-001	-2.06145E-001	4.06694E-004	...........
	156	39.25	-2.04900E-001	-2.06535E-001	4.12902E-004	...........
	157	39.5	-2.05489E-001	-2.06900E-001	4.08402E-004	...........
	158	39.75	-2.06052E-001	-2.08577E-001	4.05152E-004	...........
	159	40	-2.06702E-001	-2.12450E-001	4.05361E-004	...........
	160	40.25	-2.07726E-001	-2.12339E-001	4.02611E-004	...........
	161	40.5	-2.09175E-001	-2.12169E-001	4.06861E-004	...........
	162	40.75	-2.10641E-001	-2.12236E-001	4.05986E-004	...........
	163	41	-2.11655E-001	-2.11941E-001	4.03986E-004	...........
	164	41.25	-2.12042E-001	-2.08361E-001	4.09027E-004	...........
	165	41.5	-2.11769E-001	-2.08608E-001	4.05402E-004	...........
	166	41.75	-2.10938E-001	-2.09334E-001	4.02652E-004	...........
	167	42	-2.09987E-001	-2.09858E-001	4.02736E-004	...........
	168	42.25	-2.09422E-001	-2.10303E-001	4.03486E-004	...........
	169	42.5	-2.09387E-001	-2.10616E-001	4.03069E-004	...........
	170	42.75	-2.09757E-001	-2.13881E-001	4.01611E-004	...........
	171	43	-2.10501E-001	-2.15534E-001	4.06277E-004	...........
	172	43.25	-2.11679E-001	-2.15102E-001	4.06527E-004	...........
	173	43.5	-2.13066E-001	-2.14632E-001	4.08527E-004	...........
	174	43.75	-2.14143E-001	-2.12815E-001	4.08819E-004	...........
	175	44	-2.14489E-001	-2.11263E-001	4.01569E-004	...........
	176	44.25	-2.14057E-001	-2.11753E-001	4.06861E-004	...........
	177	44.5	-2.13193E-001	-2.12077E-001	4.07652E-004	...........
	178	44.75	-2.12421E-001	-2.12564E-001	4.07986E-004	...........
	179	45	-2.12072E-001	-2.13087E-001	4.08736E-004	...........
	180	45.25	-2.12157E-001	-2.13660E-001	4.04152E-004	...........
	181	45.5	-2.12526E-001	-2.14124E-001	4.06569E-004	...........
	182	45.75	-2.13023E-001	-2.14583E-001	4.07444E-004	...........
	183	46	-2.13544E-001	-2.14740E-001	4.09944E-004	...........
	184	46.25	-2.14016E-001	-2.14883E-001	4.08902E-004	...........
	185	46.5	-2.14395E-001	-2.15012E-001	4.07902E-004	...........
	186	46.75	-2.14672E-001	-2.15257E-001	4.08569E-004	...........
	187	47	-2.14878E-001	-2.15520E-001	4.06777E-004	...........
	188	47.25	-2.15067E-001	-2.15773E-001	4.09111E-004	...........
	189	47.5	-2.15273E-001	-2.16040E-001	4.07236E-004	...........
	190	47.75	-2.15504E-001	-2.16258E-001	4.08486E-004	...........
	191	48	-2.15750E-001	-2.16501E-001	4.10444E-004	...........
	192	48.25	-2.15991E-001	-2.16341E-001	4.09069E-004	...........
	193	48.5	-2.16125E-001	-2.12898E-001	4.10861E-004	...........
	194	48.75	-2.15918E-001	-2.13447E-001	4.10694E-004	...........
	195	49	-2.15263E-001	-2.13582E-001	4.09194E-004	...........
	196	49.25	-2.14459E-001	-2.14408E-001	4.11069E-004	...........
	197	49.5	-2.13972E-001	-2.15949E-001	4.10319E-004	...........
	198	49.75	-2.14088E-001	-2.18488E-001	4.08236E-004	...........
	199	50	-2.14873E-001	-2.19632E-001	4.03652E-004	...........
	200	50.25	-2.16185E-001	-2.19964E-001	4.08611E-004	...........
	201	50.5	-2.17659E-001	-2.20641E-001	4.09527E-004	...........
	202	50.75	-2.18944E-001	-2.21786E-001	4.07111E-004	...........
	203	51	-2.19953E-001	-2.22363E-001	4.06111E-004	...........
	204	51.25	-2.20748E-001	-2.20623E-001	4.09777E-004	...........
	205	51.5	-2.21268E-001	-2.20710E-001	4.05819E-004	...........
	206	51.75	-2.21350E-001	-2.18526E-001	4.04402E-004	...........
	207	52	-2.20941E-001	-2.18123E-001	4.08694E-004	...........
	208	52.25	-2.20142E-001	-2.16836E-001	4.09694E-004	...........
	209	52.5	-2.19214E-001	-2.20248E-001	4.08569E-004	...........
	210	52.75	-2.18645E-001	-2.22776E-001	4.08861E-004	...........
	211	53	-2.18990E-001	-2.26555E-001	4.08819E-004	...........
	212	53.25	-2.20635E-001	-2.36678E-001	4.06069E-004	...........
	213	53.5	-2.24349E-001	-2.67711E-001	4.03486E-004	...........
	214	53.75	-2.32447E-001	-3.09704E-001	4.02986E-004	...........
	215	54	-2.47575E-001	-3.09783E-001	4.11694E-004	...........
	216	54.25	-2.67899E-001	-2.87229E-001	4.12277E-004	...........
	217	54.5	-2.84165E-001	-2.07346E-001	4.03236E-004	...........
	218	54.75	-2.84717E-001	-1.97607E-001	4.05194E-004	...........
	219	55	-2.66393E-001	-1.97586E-001	4.06111E-004	...........
	220	55.25	-2.39036E-001	-2.01242E-001	4.04819E-004	...........
	221	55.5	-2.16147E-001	-2.01857E-001	4.00819E-004	...........
	222	55.75	-2.03708E-001	-1.99903E-001	4.08319E-004	...........
	223	56	-1.99441E-001	-1.92477E-001	4.12152E-004	...........
	224	56.25	-1.98605E-001	-2.05948E-001	4.14527E-004	...........
	225	56.5	-1.98795E-001	-2.09014E-001	4.07111E-004	...........
	226	56.75	-2.00294E-001	-2.10802E-001	4.07402E-004	...........
	227	57	-2.03283E-001	-2.11088E-001	4.06944E-004	...........
	228	57.25	-2.06674E-001	-2.12817E-001	4.08777E-004	...........
	229	57.5	-2.09404E-001	-2.13883E-001	4.08777E-004	...........
	230	57.75	-2.11297E-001	-2.14851E-001	4.12027E-004	...........
	231	58	-2.12648E-001	-2.15365E-001	4.10652E-004	...........
	232	58.25	-2.13706E-001	-2.15799E-001	4.11777E-004	...........
	233	58.5	-2.14558E-001	-2.16447E-001	4.07277E-004	...........
	234	58.75	-2.15250E-001	-2.17046E-001	4.07736E-004	...........
	235	59	-2.15848E-001	-2.17586E-001	4.15610E-004	...........
	236	59.25	-2.16419E-001	-2.18235E-001	4.12902E-004	...........
	237	59.5	-2.16991E-001	-2.18758E-001	4.11569E-004	...........
	238	59.75	-2.17567E-001	-2.19228E-001	4.09611E-004	...........
	239	60	-2.18132E-001	-2.19593E-001	4.07736E-004	...........
	240	60.25	-2.18662E-001	-2.20131E-001	4.07611E-004	...........
	241	60.5	-2.19153E-001	-2.20694E-001	4.08194E-004	...........
	242	60.75	-2.19630E-001	-2.21088E-001	4.00444E-004	...........
	243	61	-2.20109E-001	-2.21430E-001	3.99194E-004	...........
	244	61.25	-2.20574E-001	-2.21759E-001	3.97361E-004	...........
	245	61.5	-2.21001E-001	-2.22098E-001	4.04861E-004	...........
	246	61.75	-2.21385E-001	-2.22417E-001	4.05569E-004	...........
	247	62	-2.21736E-001	-2.22768E-001	4.07319E-004	...........
	248	62.25	-2.22072E-001	-2.23102E-001	4.05277E-004	...........
	249	62.5	-2.22336E-001	-2.19851E-001	4.06736E-004	...........
	250	62.75	-2.22287E-001	-2.18741E-001	4.08861E-004	...........
	251	63	-2.21687E-001	-2.18975E-001	4.03694E-004	...........
	252	63.25	-2.20676E-001	-2.18181E-001	3.98277E-004	...........
	253	63.5	-2.19726E-001	-2.21216E-001	4.05736E-004	...........
	254	63.75	-2.19261E-001	-2.19978E-001	4.13027E-004	...........
	255	64	-2.19296E-001	-2.16612E-001	4.08694E-004	...........
	256	64.25	-2.19342E-001	-2.18212E-001	4.07569E-004	...........
	257	64.5	-2.19009E-001	-2.18022E-001	4.07402E-004	...........
	258	64.75	-2.18522E-001	-2.19882E-001	4.08277E-004	...........
	259	65	-2.18380E-001	-2.21718E-001	4.11402E-004	...........
	260	65.25	-2.18866E-001	-2.23184E-001	4.14527E-004	...........
	261	65.5	-2.19932E-001	-2.23776E-001	4.09569E-004	...........
	262	65.75	-2.21229E-001	-2.22183E-001	4.06611E-004	...........
	263	66	-2.22227E-001	-2.20350E-001	4.06319E-004	...........
	264	66.25	-2.22501E-001	-2.20470E-001	4.07319E-004	...........
	265	66.5	-2.22084E-001	-2.21161E-001	4.10027E-004	...........
	266	66.75	-2.21475E-001	-2.22421E-001	4.10652E-004	...........
	267	67	-2.21241E-001	-2.24611E-001	4.04194E-004	...........
	268	67.25	-2.21687E-001	-2.26773E-001	4.03861E-004	...........
	269	67.5	-2.22805E-001	-2.27041E-001	4.03194E-004	...........
	270	67.75	-2.24301E-001	-2.28311E-001	4.03486E-004	...........
	271	68	-2.25752E-001	-2.27077E-001	4.10152E-004	...........
	272	68.25	-2.26798E-001	-2.26784E-001	4.09194E-004	...........
	273	68.5	-2.27306E-001	-2.28195E-001	4.04402E-004	...........
	274	68.75	-2.27513E-001	-2.31249E-001	4.04861E-004	...........
	275	69	-2.27971E-001	-2.33330E-001	4.03569E-004	...........
	276	69.25	-2.29056E-001	-2.33052E-001	4.08486E-004	...........
	277	69.5	-2.30546E-001	-2.32719E-001	4.13861E-004	...........
	278	69.75	-2.31820E-001	-2.31107E-001	4.05902E-004	...........
	279	70	-2.32381E-001	-2.29829E-001	4.11486E-004	...........
	280	70.25	-2.32147E-001	-2.29978E-001	4.13861E-004	...........
	281	70.5	-2.31432E-001	-2.30111E-001	4.14361E-004	...........
	282	70.75	-2.30705E-001	-2.30167E-001	4.05152E-004	...........
	283	71	-2.30261E-001	-2.30384E-001	4.09111E-004	...........
	284	71.25	-2.30125E-001	-2.30579E-001	4.07486E-004	...........
	285	71.5	-2.30189E-001	-2.30725E-001	4.08902E-004	...........
	286	71.75	-2.30344E-001	-2.30826E-001	4.12527E-004	...........
	287	72	-2.30521E-001	-2.31015E-001	4.09111E-004	...........
	288	72.25	-2.30687E-001	-2.31095E-001	4.16486E-004	...........
	289	72.5	-2.30833E-001	-2.31104E-001	4.07277E-004	...........
	290	72.75	-2.30956E-001	-2.31170E-001	4.01402E-004	...........
	291	73	-2.31049E-001	-2.31305E-001	4.07361E-004	...........
	292	73.25	-2.31126E-001	-2.31419E-001	4.05861E-004	...........
	293	73.5	-2.31206E-001	-2.31545E-001	4.13027E-004	...........
	294	73.75	-2.31303E-001	-2.31715E-001	4.08111E-004	...........
	295	74	-2.31420E-001	-2.31873E-001	4.09402E-004	...........
	296	74.25	-2.31554E-001	-2.32041E-001	4.08777E-004	...........
	297	74.5	-2.31704E-001	-2.32227E-001	4.07486E-004	...........
	298	74.75	-2.31865E-001	-2.32391E-001	4.06694E-004	...........
	299	75	-2.32031E-001	-2.32421E-001	4.07986E-004	...........
	300	75.25	-2.32186E-001	-2.32438E-001	4.05652E-004	...........
	301	75.5	-2.32310E-001	-2.32528E-001	4.04902E-004	...........
	302	75.75	-2.32398E-001	-2.32595E-001	4.09152E-004	...........
	303	76	-2.32466E-001	-2.32694E-001	4.06319E-004	...........
	304	76.25	-2.32531E-001	-2.32814E-001	4.08902E-004	...........
	305	76.5	-2.32608E-001	-2.32917E-001	4.11444E-004	...........
	306	76.75	-2.32699E-001	-2.33000E-001	4.06277E-004	...........
	307	77	-2.32797E-001	-2.33089E-001	4.08486E-004	...........
	308	77.25	-2.32896E-001	-2.33180E-001	4.05694E-004	...........
	309	77.5	-2.32991E-001	-2.33213E-001	4.05694E-004	...........
	310	77.75	-2.33075E-001	-2.33240E-001	4.04986E-004	...........
	311	78	-2.33146E-001	-2.33298E-001	4.04861E-004	...........
	312	78.25	-2.33204E-001	-2.33424E-001	4.06861E-004	...........
	313	78.5	-2.33260E-001	-2.33554E-001	4.08569E-004	...........
	314	78.75	-2.33364E-001	-2.35307E-001	4.09277E-004	...........
	315	79	-2.33662E-001	-2.37575E-001	4.11944E-004	...........
	316	79.25	-2.34336E-001	-2.37096E-001	4.13777E-004	...........
	317	79.5	-2.35296E-001	-2.35747E-001	4.07777E-004	...........
	318	79.75	-2.36118E-001	-2.36660E-001	4.07194E-004	...........
	319	80	-2.36572E-001	-2.40194E-001	4.09236E-004	...........
	320	80.25	-2.36987E-001	-2.39758E-001	4.06027E-004	...........
	321	80.5	-2.37702E-001	-2.38586E-001	4.08986E-004	...........
	322	80.75	-2.38409E-001	-2.34077E-001	4.08319E-004	...........
	323	81	-2.38381E-001	-2.32971E-001	4.06652E-004	...........
	324	81.25	-2.37297E-001	-2.32513E-001	4.04402E-004	...........
	325	81.5	-2.35499E-001	-2.27143E-001	4.01819E-004	...........
	326	81.75	-2.33319E-001	-2.22328E-001	4.01944E-004	...........
	327	82	-2.30480E-001	-2.12818E-001	4.09402E-004	...........
	328	82.25	-2.26284E-001	-2.00082E-001	4.05736E-004	...........
	329	82.5	-2.20271E-001	-2.00949E-001	3.99444E-004	...........
	330	82.75	-2.13216E-001	-2.03123E-001	3.96611E-004	...........
	331	83	-2.07226E-001	-2.06494E-001	4.06236E-004	...........
	332	83.25	-2.04068E-001	-2.07488E-001	4.11027E-004	...........
	333	83.5	-2.03808E-001	-2.10938E-001	4.04736E-004	...........
	334	83.75	-2.05370E-001	-2.12901E-001	4.06777E-004	...........
	335	84	-2.07684E-001	-2.14220E-001	4.07986E-004	...........
	336	84.25	-2.10070E-001	-2.14940E-001	4.05277E-004	...........
	337	84.5	-2.12133E-001	-2.16305E-001	4.05902E-004	...........
	338	84.75	-2.13755E-001	-2.17297E-001	4.07944E-004	...........
	339	85	-2.15037E-001	-2.17944E-001	4.07194E-004	...........
	340	85.25	-2.16116E-001	-2.18690E-001	4.06694E-004	...........
	341	85.5	-2.17051E-001	-2.19300E-001	4.08986E-004	...........
	342	85.75	-2.17862E-001	-2.19760E-001	4.04361E-004	...........
	343	86	-2.18564E-001	-2.20224E-001	4.05902E-004	...........
	344	86.25	-2.19173E-001	-2.20749E-001	4.02861E-004	...........
	345	86.5	-2.19713E-001	-2.21275E-001	4.09319E-004	...........
	346	86.75	-2.20220E-001	-2.21750E-001	4.09861E-004	...........
	347	87	-2.20719E-001	-2.22210E-001	4.08819E-004	...........
	348	87.25	-2.21210E-001	-2.22555E-001	4.07527E-004	...........
	349	87.5	-2.21682E-001	-2.22946E-001	4.06486E-004	...........
	350	87.75	-2.22121E-001	-2.23287E-001	4.03819E-004	...........
	351	88	-2.22525E-001	-2.23686E-001	4.08486E-004	...........
	352	88.25	-2.22906E-001	-2.24000E-001	4.12694E-004	...........
	353	88.5	-2.23271E-001	-2.24246E-001	4.11444E-004	...........
	354	88.75	-2.23616E-001	-2.24496E-001	4.03902E-004	...........
	355	89	-2.23932E-001	-2.24791E-001	4.04986E-004	...........
	356	89.25	-2.24221E-001	-2.25059E-001	3.99986E-004	...........
	357	89.5	-2.24493E-001	-2.25172E-001	4.02527E-004	...........
	358	89.75	-2.24745E-001	-2.25268E-001	4.05444E-004	...........
	359	90	-2.24966E-001	-2.25647E-001	3.99361E-004	...........
	360	90.25	-2.25164E-001	-2.25856E-001	4.03152E-004	...........
	361	90.5	-2.25373E-001	-2.26336E-001	4.05027E-004	...........
	362	90.75	-2.25625E-001	-2.26726E-001	4.03361E-004	...........
	363	91	-2.25930E-001	-2.26885E-001	4.01777E-004	...........
	364	91.25	-2.26263E-001	-2.27050E-001	4.01236E-004	...........
	365	91.5	-2.26576E-001	-2.27355E-001	4.04277E-004	...........
	366	91.75	-2.26850E-001	-2.27787E-001	4.07652E-004	...........
	367	92	-2.27111E-001	-2.27909E-001	4.11986E-004	...........
	368	92.25	-2.27384E-001	-2.28310E-001	4.04444E-004	...........
	369	92.5	-2.27636E-001	-2.26834E-001	4.07194E-004	...........
	370	92.75	-2.27809E-001	-2.29940E-001	3.99861E-004	...........
	371	93	-2.27983E-001	-2.29375E-001	4.10194E-004	...........
	372	93.25	-2.28309E-001	-2.28599E-001	4.12944E-004	...........
	373	93.5	-2.28708E-001	-2.29310E-001	4.09319E-004	...........
	374	93.75	-2.28968E-001	-2.28690E-001	4.05527E-004	...........
	375	94	-2.28988E-001	-2.26273E-001	4.09027E-004	...........
	376	94.25	-2.28734E-001	-2.28516E-001	4.06777E-004	...........
	377	94.5	-2.28263E-001	-2.25835E-001	4.09361E-004	...........
	378	94.75	-2.27713E-001	-2.25370E-001	4.04361E-004	...........
	379	95	-2.27183E-001	-2.29673E-001	4.05486E-004	...........
	380	95.25	-2.27030E-001	-2.33995E-001	4.03486E-004	...........
	381	95.5	-2.27741E-001	-2.28733E-001	4.09736E-004	...........
	382	95.75	-2.29175E-001	-2.36738E-001	4.13986E-004	...........
	383	96	-2.31012E-001	-2.46525E-001	4.13569E-004	...........
	384	96.25	-2.33647E-001	-2.41614E-001	4.06236E-004	...........
	385	96.5	-2.36263E-001	-1.98572E-001	4.12569E-004	...........
	386	96.75	-2.34116E-001	-1.52057E-001	4.09277E-004	...........
	387	97	-2.21616E-001	-1.53207E-001	4.05236E-004	...........
	388	97.25	-1.99970E-001	-1.57210E-001	4.05569E-004	...........
	389	97.5	-1.78152E-001	-1.67922E-001	4.05944E-004	...........
	390	97.75	-1.65014E-001	-1.90156E-001	4.04986E-004	...........
	391	98	-1.63325E-001	-1.91809E-001	4.01736E-004	...........
	392	98.25	-1.70161E-001	-1.96324E-001	4.05902E-004	...........
	393	98.5	-1.80182E-001	-2.05673E-001	4.08069E-004	...........
	394	98.75	-1.89464E-001	-2.06975E-001	4.08486E-004	...........
	395	99	-1.96795E-001	-2.07699E-001	4.06569E-004	...........
	396	99.25	-2.02138E-001	-2.09486E-001	4.07361E-004	...........
	397	99.5	-2.05681E-001	-2.11449E-001	4.10652E-004	...........
	398	99.75	-2.07939E-001	-2.11233E-001	4.14486E-004	...........
	399	100	-2.09494E-001	-2.12861E-001	4.13027E-004	...........
	400	100.25	-2.10705E-001	-2.14896E-001	4.11486E-004	...........
	401	100.5	-2.11838E-001	-2.15913E-001	4.04819E-004	...........
	402	100.75	-2.13082E-001	-2.17283E-001	4.06111E-004	...........
	403	101	-2.14415E-001	-2.17419E-001	4.09527E-004	...........
	404	101.25	-2.15665E-001	-2.18204E-001	4.05361E-004	...........
	405	101.5	-2.16694E-001	-2.18912E-001	4.04361E-004	...........
	406	101.75	-2.17522E-001	-2.20395E-001	4.06194E-004	...........
	407	102	-2.18302E-001	-2.21228E-001	3.99527E-004	...........
	408	102.25	-2.19158E-001	-2.21725E-001	4.00361E-004	...........
	409	102.5	-2.20068E-001	-2.22415E-001	4.03819E-004	...........
	410	102.75	-2.20931E-001	-2.23308E-001	4.07527E-004	...........
	411	103	-2.21710E-001	-2.23710E-001	4.08652E-004	...........
	412	103.25	-2.22421E-001	-2.24191E-001	4.00944E-004	...........
	413	103.5	-2.23051E-001	-2.23795E-001	4.05152E-004	...........
	414	103.75	-2.23444E-001	-2.19411E-001	4.04736E-004	...........
	415	104	-2.22975E-001	-2.03683E-001	4.11611E-004	...........
	416	104.25	-2.20420E-001	-1.98022E-001	4.08402E-004	...........
	417	104.5	-2.16509E-001	-2.68738E-001	4.04986E-004	...........
	418	104.75	-2.17163E-001	-2.82865E-001	4.04569E-004	...........
	419	105	-2.28571E-001	-2.86203E-001	4.00361E-004	...........
	420	105.25	-2.48349E-001	-2.89703E-001	4.07402E-004	...........
	421	105.5	-2.67781E-001	-2.90801E-001	4.08694E-004	...........
	422	105.75	-2.80969E-001	-2.86678E-001	4.07569E-004	...........
	423	106	-2.87151E-001	-2.73879E-001	4.07736E-004	...........
	424	106.25	-2.87438E-001	-2.64516E-001	4.05152E-004	...........
	425	106.5	-2.83078E-001	-2.59473E-001	4.04277E-004	...........
	426	106.75	-2.75745E-001	-2.47085E-001	4.09611E-004	...........
	427	107	-2.67199E-001	-2.42896E-001	4.04527E-004	...........
	428	107.25	-2.58914E-001	-2.53253E-001	4.09569E-004	...........
	429	107.5	-2.52751E-001	-2.56821E-001	4.06152E-004	...........
	430	107.75	-2.50356E-001	-2.56440E-001	4.14527E-004	...........
	431	108	-2.51327E-001	-2.55778E-001	4.01944E-004	...........
	432	108.25	-2.53502E-001	-2.55188E-001	4.03819E-004	...........
	433	108.5	-2.55081E-001	-2.54615E-001	4.03694E-004	...........
	434	108.75	-2.55589E-001	-2.54183E-001	4.11986E-004	...........
	435	109	-2.55364E-001	-2.53756E-001	4.05277E-004	...........
	436	109.25	-2.54850E-001	-2.53307E-001	4.08319E-004	...........
	437	109.5	-2.54304E-001	-2.52925E-001	4.09152E-004	...........
	438	109.75	-2.53811E-001	-2.52590E-001	4.05277E-004	...........
	439	110	-2.53373E-001	-2.52208E-001	4.11777E-004	...........
	440	110.25	-2.52977E-001	-2.51895E-001	4.10236E-004	...........
	441	110.5	-2.52607E-001	-2.51491E-001	4.07402E-004	...........
	442	110.75	-2.52249E-001	-2.51130E-001	4.08777E-004	...........
	443	111	-2.51894E-001	-2.50973E-001	4.05819E-004	...........
	444	111.25	-2.51553E-001	-2.50651E-001	4.17069E-004	...........
	445	111.5	-2.51238E-001	-2.50365E-001	4.13361E-004	...........
	446	111.75	-2.50948E-001	-2.50087E-001	4.13277E-004	...........
	447	112	-2.50671E-001	-2.49946E-001	4.05527E-004	...........
	448	112.25	-2.50409E-001	-2.49840E-001	4.16486E-004	...........
	449	112.5	-2.50177E-001	-2.49574E-001	4.15111E-004	...........
	450	112.75	-2.49977E-001	-2.49390E-001	4.15736E-004	...........
	451	113	-2.49790E-001	-2.49181E-001	4.09027E-004	...........
	452	113.25	-2.49599E-001	-2.48927E-001	4.13611E-004	...........
	453	113.5	-2.49395E-001	-2.48678E-001	4.11777E-004	...........
	454	113.75	-2.49177E-001	-2.48528E-001	4.08611E-004	...........
	455	114	-2.48956E-001	-2.48402E-001	4.07944E-004	...........
	456	114.25	-2.48748E-001	-2.48255E-001	4.09486E-004	...........
	457	114.5	-2.48566E-001	-2.48073E-001	4.10986E-004	...........
	458	114.75	-2.48406E-001	-2.48049E-001	4.08361E-004	...........
	459	115	-2.48260E-001	-2.47714E-001	4.06111E-004	...........
	460	115.25	-2.48111E-001	-2.47378E-001	4.02027E-004	...........
	461	115.5	-2.47933E-001	-2.47267E-001	4.03944E-004	...........
	462	115.75	-2.47719E-001	-2.47088E-001	4.02736E-004	...........
	463	116	-2.47490E-001	-2.46667E-001	4.01277E-004	...........
	464	116.25	-2.47248E-001	-2.45928E-001	4.08486E-004	...........
	465	116.5	-2.46944E-001	-2.45457E-001	4.06527E-004	...........
	466	116.75	-2.46541E-001	-2.45076E-001	4.13319E-004	...........
	467	117	-2.46058E-001	-2.44228E-001	4.18361E-004	...........
	468	117.25	-2.45553E-001	-2.45065E-001	4.09444E-004	...........
	469	117.5	-2.45104E-001	-2.43657E-001	4.06902E-004	...........
	470	117.75	-2.44764E-001	-2.45008E-001	4.09611E-004	...........
	471	118	-2.44563E-001	-2.45061E-001	4.11444E-004	...........
	472	118.25	-2.44541E-001	-2.44878E-001	4.07069E-004	...........
	473	118.5	-2.44662E-001	-2.44755E-001	4.08486E-004	...........
	474	118.75	-2.44789E-001	-2.44587E-001	4.13319E-004	...........
	475	119	-2.44810E-001	-2.43992E-001	4.13569E-004	...........
	476	119.25	-2.44712E-001	-2.44782E-001	4.12861E-004	...........
	477	119.5	-2.44578E-001	-2.44745E-001	4.07319E-004	...........
	478	119.75	-2.44520E-001	-2.44674E-001	4.09111E-004	...........
	479	120	-2.44534E-001	-2.43310E-001	4.10069E-004	...........
	480	120.25	-2.44521E-001	-2.46116E-001	4.10236E-004	...........
	481	120.5	-2.44522E-001	-2.45143E-001	4.11986E-004	...........
	482	120.75	-2.44673E-001	-2.44926E-001	4.14152E-004	...........
	483	121	-2.44908E-001	-2.44812E-001	4.14736E-004	...........
	484	121.25	-2.45038E-001	-2.44963E-001	4.08652E-004	...........
	485	121.5	-2.45035E-001	-2.45222E-001	4.12819E-004	...........
	486	121.75	-2.45030E-001	-2.46336E-001	4.17111E-004	...........
	487	122	-2.45173E-001	-2.46549E-001	4.15361E-004	...........
	488	122.25	-2.45507E-001	-2.46481E-001	4.15694E-004	...........
	489	122.5	-2.45919E-001	-2.46318E-001	4.13486E-004	...........
	490	122.75	-2.46220E-001	-2.45608E-001	4.13361E-004	...........
	491	123	-2.46279E-001	-2.44902E-001	4.03319E-004	...........
	492	123.25	-2.46070E-001	-2.44941E-001	4.09944E-004	...........
	493	123.5	-2.45692E-001	-2.44980E-001	4.10777E-004	...........
	494	123.75	-2.45322E-001	-2.45019E-001	4.11361E-004	...........
	495	124	-2.45087E-001	-2.45060E-001	4.07694E-004	...........
	496	124.25	-2.45000E-001	-2.45175E-001	4.13069E-004	...........
	497	124.5	-2.45013E-001	-2.45352E-001	4.10236E-004	...........
	498	124.75	-2.45079E-001	-2.45143E-001	4.11152E-004	...........
	499	125	-2.45152E-001	-2.45156E-001	4.15402E-004	...........
	500	125.25	-2.45196E-001	-2.45269E-001	4.10611E-004	...........
	501	125.5	-2.45211E-001	-2.45370E-001	4.10319E-004	...........
	502	125.75	-2.45237E-001	-2.45730E-001	4.12486E-004	...........
	503	126	-2.45319E-001	-2.46147E-001	4.18944E-004	...........
	504	126.25	-2.45487E-001	-2.46222E-001	4.09944E-004	...........
	505	126.5	-2.45706E-001	-2.45435E-001	4.12319E-004	...........
	506	126.75	-2.45854E-001	-2.45257E-001	4.12777E-004	...........
	507	127	-2.45829E-001	-2.45364E-001	4.07986E-004	...........
	508	127.25	-2.45667E-001	-2.45468E-001	4.08861E-004	...........
	509	127.5	-2.45506E-001	-2.45540E-001	4.03777E-004	...........
	510	127.75	-2.45435E-001	-2.45642E-001	4.15361E-004	...........
	511	128	-2.45456E-001	-2.45719E-001	4.11736E-004	...........
	512	128.25	-2.45528E-001	-2.45785E-001	4.15361E-004	...........
	513	128.5	-2.45614E-001	-2.45745E-001	4.12652E-004	...........
	514	128.75	-2.45687E-001	-2.45781E-001	4.12152E-004	...........
	515	129	-2.45737E-001	-2.45828E-001	4.13277E-004	...........
	516	129.25	-2.45767E-001	-2.45840E-001	4.14569E-004	...........
	517	129.5	-2.45792E-001	-2.45906E-001	4.11236E-004	...........
EOC	QUANT	-0.2457923	Open Circuit (V)
PSTATMODEL	IQUANT	4	Pstat Model
PSTATSECTION	LABEL	REF600-19025	Pstat Section
PSTATSERIALNO	LABEL	19025	Pstat Serial Number
CTRLMODE	IQUANT	1	Control Mode
IESTAB	IQUANT	0	I/E Stability
CASPEED	IQUANT	1	Control Amp Speed
CONVENTION	IQUANT	1	Current Convention
ICHRANGE	IQUANT	2	Ich Range
ICHRANGEMODE	TOGGLE	F	Ich Auto Range
ICHOFFSETENABLE	TOGGLE	T	Ich Offset Enable
ICHOFFSET	QUANT	0	Ich Offset (V)
ICHFILTER	IQUANT	3	Ich Filter
VCHRANGE	IQUANT	2	Vch Range
VCHRANGEMODE	TOGGLE	F	Vch Auto Range
VCHOFFSETENABLE	TOGGLE	T	Vch Offset Enable
VCHOFFSET	QUANT	0	Vch Offset (V)
VCHFILTER	IQUANT	3	Vch Filter
ACHRANGE	IQUANT	2	Ach Range
ACHOFFSETENABLE	TOGGLE	F	Ach Offset Enable
ACHOFFSET	QUANT	0	Ach Offset (V)
ACHFILTER	IQUANT	3	Ach Filter
IERANGELOWERLIMIT	IQUANT	1	I/E Range Lower Limit
IERANGEMODE	TOGGLE	F	I/E AutoRange
IERANGE	IQUANT	3	I/E Range
POSFEEDENABLE	TOGGLE	F	Positive Feedback IR Comp
POSFEEDRESISTANCE	QUANT	0	Positive Feedback Resistance (ohm)
ACHSELECT	IQUANT	0	Ach Select
CABLEID	IQUANT	13	Cable ID
DCCALDATE	LABEL	2017-4-11	DC Calibration Date
ACCALDATE	LABEL	2017-4-11	AC Calibration Date
THERMOSELECT	IQUANT	1	Thermo Select
FRAMEWORKVERSION	QUANT	6.04	Framework Version
INSTRUMENTVERSION	LABEL	3.04	Instrument Version
ZCURVE	TABLE
	Pt	Time	Freq	Zreal	Zimag	Zsig	Zmod	Zphz	Idc	Vdc	IERange
	#	s	Hz	ohm	ohm	V	ohm	°	A	V	#
	0	6	100078.1	17623.65	-116619.3	1	117943.5	-81.40642	1.912998E-006	-0.2445988	8
	1	13	63140.62	25732.07	-178771.2	1	180613.6	-81.80919	1.996353E-006	-0.2444108	8
	2	15	39890.62	37517.19	-276921.9	1	279451.8	-82.28458	-8.152486E-007	-0.2447028	7
	3	23	25171.88	60530.7	-429147.8	1	433395.7	-81.97147	8.679451E-007	-0.246633	7
	4	30	15890.62	99887.1	-643864.4	1	651566.4	-81.18161	1.138369E-006	-0.2452219	7
	5	34	10078.13	132320.4	-994269	1	1003035	-82.41945	1.551844E-006	-0.2462048	7
	6	42	6328.125	283472.8	-1522322	1	1548490	-79.45172	-1.677306E-006	-0.2433588	7
	7	49	3984.375	477228	-2257699	1	2307585	-78.06462	-1.344873E-007	-0.2446971	6
	8	58	2527.573	927022.8	-3331190	1	3457773	-74.44887	-2.714988E-007	-0.2410776	6
	9	62	1577.524	1420658	-7384890	1	7520297	-79.11083	-2.507831E-007	-0.2420565	6
	10	64	998.264	3597833	-5677465	1	6721459	-57.63739	-2.523466E-007	-0.2420587	6
	11	69	627.7902	4524144	-1.153932E+007	1	1.239451E+007	-68.59168	1.411066E-008	-0.2469675	6
	12	75	397.9953	5262813	-1.413268E+007	1	1.508078E+007	-69.57538	1.454212E-011	-0.2447529	5
	13	79	252.4038	7553786	-1.972307E+007	1	2.112011E+007	-69.04354	-1.691245E-011	-0.2447574	5
	14	81	158.3615	1.148189E+007	-2.791019E+007	1	3.017967E+007	-67.63837	1.777812E-012	-0.2447614	5
	15	84	100.4464	1.712865E+007	-3.934825E+007	1	4.291475E+007	-66.47607	-8.34481E-012	-0.2447614	5
	16	87	63.3446	2.252146E+007	-5.880381E+007	1	6.296908E+007	-69.0435	-6.843572E-011	-0.2447395	5
	17	90	38.42213	3.516304E+007	-7.179959E+007	1	7.994762E+007	-63.90722	-4.276808E-012	-0.2447378	4
	18	94	24.93351	5.295551E+007	-1.047644E+008	1	1.173877E+008	-63.18466	-8.784626E-012	-0.244744	4
	19	98	15.625	9.145165E+007	-1.323985E+008	1	1.609123E+008	-55.36599	9.821582E-012	-0.2447385	4
	20	101	9.93114	1.090141E+008	-2.271539E+008	1	2.519582E+008	-64.36305	3.398618E-012	-0.2447405	4
	21	106	6.317385	1.460775E+008	-2.747636E+008	1	3.111811E+008	-62.00274	7.101484E-013	-0.244754	4
	22	111	3.945707	2.048295E+008	-3.806835E+008	1	4.322905E+008	-61.71721	-2.692126E-012	-0.24473	3
	23	118	2.504006	2.756764E+008	-5.20263E+008	1	5.887878E+008	-62.08183	-2.465225E-012	-0.244734	3
	24	125	1.584686	3.945116E+008	-6.914668E+008	1	7.96094E+008	-60.29338	-2.940538E-012	-0.2447113	3
	25	135	0.999041	5.363052E+008	-9.709379E+008	1	1.109209E+009	-61.08559	-3.032348E-012	-0.2447601	3
	26	142	0.633446	7.477325E+008	-1.304376E+009	1	1.503496E+009	-60.17654	-2.57379E-012	-0.2454565	3
	27	154	0.400641	1.081963E+009	-1.747503E+009	1	2.055337E+009	-58.23637	-1.610883E-012	-0.2454626	2
	28	171	0.2520161	1.494308E+009	-2.264971E+009	1	2.713494E+009	-56.58529	-1.562285E-012	-0.2454645	2
	29	197	0.1588983	3.103718E+009	-2.865824E+009	1	4.224454E+009	-42.71789	-1.327361E-012	-0.2454595	2
	30	236	0.1001603	2.160166E+009	-3.590589E+009	1	4.190304E+009	-58.9681	-1.366552E-012	-0.2454587	2
